TIMESTAMP PPG0 PPG1 PPG2 AMBIENT
832782264360765568 338753 316731 340931 -173052
832782264378947328 338811 316814 340948 -173099
832782264397129216 338839 316752 340974 -173109
832782264415310976 338795 316700 340911 -173106
832782264433492864 338841 316758 340954 -173078
832782264451674624 338803 316787 340942 -173112
832782264469856512 338772 316751 340903 -173088
832782264488038272 338834 316813 340968 -173078
832782264506220160 338803 316742 340933 -173109
832782264524401920 338888 316797 340984 -173069
832782264542583808 338859 316774 340953 -173109
832782264560765568 338868 316745 340932 -173068
832782264578947328 338833 316770 340920 -173053
832782264597129216 338856 316723 340950 -173065
832782264615310976 338848 316734 340945 -173026
832782264633492864 338820 316715 340942 -173102
832782264651674624 338903 316794 340954 -173026
832782264669856512 338851 316766 341006 -173011
832782264688038272 338848 316774 341008 -173067
832782264706220160 338841 316758 340932 -173108
832782264724401920 338832 316758 340913 -173089
832782264742583808 338866 316768 340922 -173093
832782264760765568 338878 316762 340962 -173028
832782264778947328 338902 316716 340932 -173054
832782264797129216 338866 316758 340914 -173111
832782264815310976 338944 316786 341017 -173058
832782264833492864 338881 316753 341015 -173070
832782264851674624 338832 316759 340965 -173078
832782264869856512 338793 316699 340906 -173124
832782264888038272 338878 316743 340917 -173059
832782264906220160 338861 316766 340981 -173012
832782264924401920 338884 316750 340985 -173069
832782264942583808 338882 316805 340935 -173058
832782264960765568 338827 316748 340967 -173047
832782264978947328 338833 316704 340923 -173044
832782264997129216 338827 316801 341001 -173078
832782265015310976 338851 316810 340979 -173056
832782265033492864 338814 316811 340954 -173104
832782265051674624 338828 316751 341012 -173048
832782265069856512 338834 316760 341008 -173086
832782265088038272 338836 316828 340998 -173092
832782265106220160 338838 316806 340979 -173093
832782265124401920 338725 316757 340965 -173076
832782265142583808 338883 316799 341007 -173023
832782265160765568 338847 316743 341003 -173074
832782265178947328 338830 316738 341026 -173047
832782265197129216 338818 316688 340983 -173076
832782265215310976 338771 316789 340956 -173095
832782265233492854 338847 316731 340970 -173033
832782265251707520 338856 316723 340966 -173055
832782265269922176 338776 316714 340964 -173119
832782265288136832 338821 316727 340965 -173096
832782265306351488 338824 316769 340996 -173059
832782265324566144 338797 316726 340954 -173098
832782265342780800 338780 316688 340954 -173093
832782265360995584 338878 316738 341049 -173076
832782265379210240 338804 316712 340956 -173108
832782265397424896 338807 316702 341004 -173112
832782265415639552 338813 316714 340980 -173100
832782265433854208 338830 316709 340901 -173115
832782265452068864 338847 316703 340903 -173093
832782265470283520 338833 316763 340969 -173069
832782265488498176 338814 316765 340937 -173036
832782265506712832 338915 316811 340968 -173078
832782265524927488 338813 316739 340935 -173110
832782265543142272 338906 316783 340994 -173111
832782265561356928 338880 316761 340956 -173115
832782265579571584 338875 316735 340950 -173091
832782265597786240 338804 316738 340964 -173114
832782265616000896 338817 316736 340936 -173039
832782265634215552 338773 316737 340908 -173085
832782265652430208 338856 316758 340964 -173046
832782265670644864 338821 316759 340893 -173122
832782265688859520 338788 316734 340894 -173145
832782265707074176 338815 316712 340974 -173091
832782265725288960 338814 316774 340953 -173080
832782265743503616 338842 316761 340920 -173140
832782265761718272 338819 316734 340911 -173144
832782265779932928 338858 316787 340974 -173070
832782265798147584 338885 316820 340989 -173110
832782265816362240 338880 316729 340930 -173148
832782265834576896 338875 316725 340980 -173077
832782265852791552 338856 316776 340969 -173155
832782265871006208 338820 316754 340981 -173092
832782265889220864 338876 316749 341006 -173091
832782265907435520 338842 316716 340937 -173092
832782265925650304 338842 316723 340940 -173115
832782265943864960 338839 316773 340911 -173147
832782265962079616 338907 316758 340990 -173069
832782265980294272 338832 316790 340962 -173089
832782265998508928 338844 316750 340934 -173053
832782266016723584 338819 316726 340923 -173023
832782266034938240 338873 316718 340906 -173074
832782266053152896 338788 316736 340964 -173108
832782266071367552 338853 316740 340901 -173039
832782266089582208 338830 316711 340939 -173096
832782266107796992 338829 316706 340945 -173130
832782266126011648 338819 316719 340939 -173123
832782266144226304 338855 316784 340979 -173064
832782266162440940 338795 316761 340963 -173047
832782266180654592 338833 316720 340912 -173042
832782266198868224 338836 316717 340939 -173059
832782266217081856 338882 316741 340949 -173062
832782266235295488 338828 316783 340968 -173016
832782266253509248 338780 316754 340959 -173104
832782266271722880 338898 316790 341030 -173094
832782266289936512 338891 316750 341001 -173047
832782266308150144 338824 316724 340913 -173067
832782266326363776 338805 316674 340973 -173044
832782266344577408 344972 322867 340967 -173000
832782266362791040 347779 325673 340981 -173041
832782266381004800 349044 326898 340933 -173047
832782266399218432 349517 327416 340915 -173094
832782266417432064 349512 327435 340982 -173094
832782266435645696 349294 327148 340953 -173088
832782266453859328 348826 326739 340926 -173081
832782266472072960 348245 326224 340949 -173078
832782266490286720 347842 325719 340956 -173069
832782266508500352 347312 325160 340980 -173061
832782266526713984 346870 324723 341001 -173063
832782266544927616 346645 324573 340966 -173072
832782266563141248 346562 324495 340961 -173104
832782266581354880 346738 324569 340979 -173089
832782266599568512 346911 324853 341075 -173025
832782266617782272 347178 325052 340961 -173043
832782266635995904 347439 325366 341009 -173057
832782266654209536 347771 325690 340978 -172990
832782266672423168 347933 325822 340981 -173052
832782266690636800 348106 325991 341008 -173076
832782266708850468 348164 326087 340990 -173104
832782266727065088 348259 326111 340960 -173060
832782266745279744 348256 326159 341008 -173020
832782266763494400 348341 326224 341024 -173022
832782266781709056 348442 326330 340986 -173063
832782266799923712 348566 326495 340944 -173081
832782266818138368 348848 326803 340944 -173070
832782266836353152 349203 327150 340942 -173086
832782266854567808 349516 327466 341011 -173076
832782266872782464 349741 327686 340922 -173106
832782266890997120 349893 327870 340981 -173123
832782266909211776 349830 327704 340912 -173109
832782266927426432 349530 327417 340930 -173085
832782266945641088 349045 327028 340957 -173103
832782266963855744 348592 326511 341001 -173091
832782266982070400 348014 325948 340961 -173105
832782267000285056 347561 325454 341022 -173058
832782267018499840 347060 325015 341015 -173059
832782267036714496 346759 324645 340953 -173024
832782267054929152 346627 324549 340930 -173018
832782267073143808 346638 324521 340981 -173044
832782267091358464 346837 324673 340980 -173027
832782267109573120 347089 324907 340985 -173061
832782267127787776 347295 325209 340933 -173065
832782267146002432 347625 325554 340932 -173089
832782267164217088 347904 325826 340973 -173056
832782267182431744 348066 325990 340983 -173052
832782267200646528 348124 326038 340980 -173062
832782267218861184 348194 326075 340988 -173013
832782267237075840 348214 326103 341025 -173070
832782267255290496 348343 326187 341024 -173034
832782267273505152 348367 326232 340973 -173123
832782267291719808 348578 326431 341022 -173072
832782267309934464 348800 326693 341035 -173050
832782267328149120 349077 326985 340987 -173069
832782267346363776 349393 327328 340983 -173053
832782267364578432 349681 327643 340977 -173050
832782267382793196 349952 327808 341013 -173045
832782267401009664 349911 327812 340995 -173062
832782267419226112 349675 327520 340966 -173075
832782267437442688 349340 327193 341008 -173067
832782267455659136 348787 326729 340997 -173079
832782267473875584 348239 326128 340944 -173058
832782267492092160 347707 325562 340960 -173060
832782267510308608 347234 325149 340982 -173036
832782267528525056 346917 324750 340964 -173091
832782267546741632 346676 324464 341005 -173098
832782267564958080 346562 324419 340964 -173141
832782267583174528 346700 324551 341045 -173112
832782267601391104 346992 324857 341050 -173068
832782267619607552 347158 325100 340974 -173139
832782267637824000 347457 325452 341022 -173130
832782267656040576 347739 325713 341021 -173109
832782267674257024 347964 325931 341021 -173031
832782267692473472 348062 326009 340950 -173087
832782267710690048 348183 326099 340944 -173062
832782267728906496 348251 326176 341024 -173034
832782267747122944 348305 326207 341019 -173060
832782267765339520 348378 326240 341004 -173068
832782267783555968 348446 326352 340917 -173098
832782267801772416 348656 326637 341005 -173033
832782267819988992 348896 326809 340978 -173057
832782267838205440 349239 327148 341032 -173067
832782267856421888 349534 327440 341013 -173086
832782267874638464 349754 327694 340936 -173050
832782267892854912 349862 327760 340969 -173104
832782267911071360 349804 327664 340961 -173041
832782267929287936 349518 327357 340922 -173090
832782267947504384 348999 326896 340952 -173129
832782267965720832 348447 326399 340940 -173088
832782267983937408 347891 325859 340938 -173109
832782268002153856 347377 325321 340926 -173136
832782268020370304 346973 324909 340949 -173129
832782268038586870 346838 324765 340994 -173090
832782268056802304 346603 324598 340987 -173080
832782268075017728 346646 324573 340929 -173072
832782268093233024 346801 324743 340967 -173068
832782268111448448 347066 325019 340998 -173058
832782268129663744 347316 325292 340965 -173038
832782268147879168 347673 325524 340987 -173047
832782268166094464 347889 325810 340942 -173107
832782268184309888 348047 325975 340929 -173100
832782268202525312 348147 326113 341019 -173048
832782268220740608 348146 326138 340974 -173109
832782268238956032 348202 326128 341012 -173094
832782268257171328 348264 326135 340970 -173038
832782268275386752 348330 326186 340935 -173111
832782268293602048 348535 326390 340972 -173105
832782268311817472 348745 326675 340980 -173043
832782268330032896 349086 326966 340898 -173064
832782268348248192 349400 327302 340946 -173030
832782268366463616 349745 327604 340957 -173041
832782268384678912 349898 327795 340913 -173012
832782268402894336 349900 327757 340953 -173004
832782268421109632 349663 327524 340948 -173086
832782268439325056 349219 327158 340923 -173107
832782268457540480 348712 326620 340904 -173094
832782268475755776 348105 326075 340919 -173114
832782268493971200 347688 325590 341041 -173056
832782268512186496 347142 325062 340967 -173105
832782268530401920 346839 324776 340964 -173023
832782268548617216 346582 324549 340916 -173096
832782268566832640 346595 324543 340977 -173061
832782268585048064 346740 324643 340981 -173113
832782268603263360 346899 324835 340994 -173096
832782268621478784 347178 325087 340959 -173126
832782268639694080 347577 325430 340998 -173091
832782268657909504 347759 325647 340951 -173065
832782268676124800 347923 325865 340932 -173138
832782268694340224 348098 325986 340938 -173128
832782268712555538 348196 326110 341011 -173095
832782268730770176 348143 326154 341007 -173110
832782268748984832 348201 326087 340957 -173098
832782268767199488 348349 326156 340965 -173126
832782268785414144 348490 326315 340953 -173113
832782268803628800 348663 326543 340910 -173108
832782268821843456 348947 326893 340959 -173054
832782268840058240 349259 327159 340951 -173096
832782268858272896 349516 327493 340982 -173072
832782268876487552 349769 327663 340927 -173114
832782268894702208 349910 327759 340900 -173120
832782268912916864 349720 327608 340944 -173100
832782268931131520 349469 327310 340954 -173040
832782268949346176 349019 326903 340961 -173091
832782268967560832 348426 326330 340940 -173079
832782268985775488 347966 325877 340964 -173097
832782269003990144 347416 325251 340887 -173093
832782269022204928 346951 324807 340961 -173087
832782269040419584 346694 324663 340994 -173087
832782269058634240 346598 324525 340963 -173091
832782269076848896 346653 324539 340933 -173045
832782269095063552 346816 324728 340888 -173056
832782269113278208 347061 324999 340910 -173112
832782269131492864 347398 325267 340893 -173054
832782269149707520 347693 325519 340938 -173051
832782269167922176 347894 325795 340926 -173115
832782269186136832 348053 325951 341005 -173082
832782269204351488 348214 326095 341021 -173067
832782269222566272 348226 326123 341016 -173055
832782269240780928 348216 326100 340982 -173050
832782269258995584 348277 326141 340936 -173047
832782269277210240 348453 326305 341001 -173094
832782269295424896 348586 326483 340994 -173112
832782269313639552 348845 326734 341000 -173059
832782269331854208 349134 327047 341001 -173082
832782269350068864 349476 327317 340984 -173068
832782269368283520 349696 327572 340980 -173090
832782269386498176 349893 327737 340961 -173087
832782269404712960 349892 327746 341003 -173062
832782269422927596 349624 327508 341005 -173119
832782269441143168 349199 327124 340998 -173060
832782269459358720 348657 326583 340919 -173089
832782269477574272 348111 326037 340965 -173068
832782269495789824 347568 325447 340916 -173158
832782269514005376 347063 324995 340866 -173110
832782269532220928 346776 324758 340957 -173059
832782269550436352 346665 324539 340968 -173073
832782269568651904 346632 324512 340946 -173074
832782269586867456 346722 324605 340968 -173038
832782269605083008 346963 324829 340977 -173075
832782269623298560 347276 325167 340973 -173048
832782269641514112 347599 325441 340942 -173067
832782269659729664 347832 325676 340960 -173106
832782269677945216 348018 325905 341001 -173070
832782269696160768 348152 325979 340928 -173045
832782269714376320 348216 326126 340972 -173088
832782269732591872 348245 326130 341021 -173081
832782269750807296 348237 326109 340942 -173080
832782269769022848 348314 326294 340979 -173058
832782269787238400 348440 326363 340906 -173140
832782269805453952 348690 326597 340920 -173108
832782269823669504 349007 326879 340951 -173073
832782269841885056 349322 327180 340930 -173115
832782269860100608 349648 327531 340984 -173099
832782269878316160 349891 327750 341013 -173087
832782269896531712 349900 327782 341009 -173079
832782269914747264 349773 327600 340986 -173094
832782269932962816 349373 327259 340947 -173096
832782269951178240 348922 326843 340989 -173063
832782269969393792 348393 326295 340983 -173062
832782269987609344 347831 325752 340995 -173036
832782270005824896 347316 325221 340891 -173037
832782270024040448 347054 324909 340942 -173076
832782270042256000 346745 324617 340929 -173056
832782270060471506 346607 324514 340927 -173040
832782270078686720 346655 324541 340938 -173081
832782270096901888 346831 324792 340929 -173105
832782270115117056 347134 325038 340998 -173104
832782270133332224 347402 325313 341007 -173088
832782270151547392 347652 325593 340965 -173130
832782270169762560 347859 325787 340979 -173106
832782270187977728 348017 325967 341017 -173096
832782270206192896 348132 326028 340962 -173104
832782270224408192 348167 326031 340954 -173125
832782270242623360 348357 326117 340983 -173147
832782270260838528 348324 326143 340968 -173042
832782270279053696 348369 326273 340942 -173099
832782270297268864 348582 326434 340935 -173104
832782270315484032 348859 326675 340892 -173052
832782270333699200 349151 327043 340926 -173128
832782270351914368 349488 327358 340974 -173107
832782270370129536 349803 327647 340969 -173055
832782270388344704 349908 327792 340956 -173115
832782270406559872 349860 327755 341018 -173146
832782270424775040 349618 327523 340968 -173107
832782270442990208 349139 327073 340879 -173077
832782270461205376 348665 326528 340991 -173102
832782270479420672 348118 326008 341032 -173113
832782270497635840 347497 325405 340917 -173139
832782270515851008 347049 325035 340990 -173026
832782270534066176 346846 324778 340962 -173031
832782270552281344 346622 324528 340963 -173073
832782270570496512 346635 324529 340960 -173110
832782270588711680 346778 324689 340925 -173130
832782270606926848 346979 324892 340926 -173085
832782270625142016 347281 325182 341003 -173051
832782270643357184 347555 325462 340955 -173081
832782270661572352 347804 325758 340955 -173063
832782270679787520 348062 325991 341035 -173067
832782270698002688 348147 326014 340967 -173051
832782270716217856 348172 326053 340918 -173115
832782270734433152 348192 326047 340956 -173063
832782270752648320 348266 326112 340938 -173102
832782270770863408 348342 326237 340961 -173094
832782270789079168 348481 326383 340968 -173093
832782270807294976 348680 326614 340964 -173090
832782270825510784 348999 326896 340979 -173060
832782270843726464 349346 327244 340988 -173068
832782270861942272 349636 327552 340980 -173072
832782270880158080 349832 327777 340966 -173061
832782270898373888 349877 327778 340988 -173127
832782270916589696 349673 327608 340888 -173120
832782270934805376 349333 327288 340951 -173031
832782270953021184 348829 326824 340947 -173103
832782270971236992 348371 326219 340930 -173067
832782270989452800 347774 325659 340904 -173034
832782271007668608 347259 325194 340949 -173053
832782271025884288 346850 324774 340932 -173093
832782271044100096 346717 324660 340943 -173074
832782271062315904 346596 324462 340929 -173075
832782271080531712 346653 324502 340961 -173155
832782271098747520 346817 324709 340936 -173081
832782271116963200 347080 324960 340836 -173108
832782271135179008 347434 325307 340906 -173160
832782271153394816 347780 325646 340930 -173104
832782271171610624 347911 325817 340882 -173127
832782271189826304 348109 325945 340946 -173102
832782271208042112 348182 326040 340956 -173054
832782271226257920 348115 325997 340926 -173161
832782271244473728 348223 326076 340933 -173088
832782271262689536 348230 326124 340935 -173067
832782271280905216 348399 326279 340929 -173074
832782271299121024 348577 326474 340998 -173033
832782271317336832 348829 326714 340945 -173061
832782271335552640 349203 327051 340944 -173086
832782271353768448 349472 327401 340904 -173109
832782271371984128 349783 327640 340962 -173036
832782271390199936 349910 327822 340926 -173030
832782271408415744 349872 327656 340954 -173057
832782271426631552 349532 327434 340946 -173075
832782271444847334 349091 326987 340902 -173137
832782271463062912 348544 326487 340937 -173080
832782271481278464 348012 325981 340957 -173111
832782271499493888 347513 325435 340979 -173060
832782271517709440 347036 324962 340957 -173053
832782271535924992 346713 324633 340951 -173055
832782271554140544 346612 324512 340953 -173058
832782271572355968 346593 324556 340978 -173097
832782271590571520 346762 324644 340982 -173077
832782271608787072 346998 324929 341012 -173055
832782271627002496 347394 325238 341020 -173067
832782271645218048 347627 325518 340967 -173087
832782271663433600 347870 325703 340900 -173093
832782271681649152 348055 325946 340916 -173099
832782271699864576 348151 326031 340947 -173114
832782271718080128 348158 326057 340944 -173149
832782271736295680 348207 326060 340928 -173099
832782271754511232 348325 326166 340951 -173090
832782271772726656 348293 326159 340982 -173074
832782271790942208 348530 326384 340937 -173120
832782271809157760 348730 326578 340921 -173131
832782271827373184 348997 326935 340939 -173095
832782271845588736 349348 327248 340898 -173112
832782271863804288 349678 327549 340895 -173035
832782271882019840 349892 327841 340934 -173063
832782271900235264 349845 327778 340919 -173095
832782271918450816 349672 327559 340919 -173091
832782271936666368 349310 327194 340955 -173073
832782271954881792 348795 326695 340965 -173123
832782271973097344 348286 326175 340939 -173061
832782271991312896 347848 325673 340955 -173097
832782272009528448 347297 325132 340968 -173061
832782272027743872 346929 324691 340949 -173070
832782272045959424 346688 324529 340916 -173075
832782272064174976 346601 324473 340938 -173080
832782272082390400 346663 324562 340942 -173026
832782272100605912 346889 324796 340959 -173045
832782272118820608 347117 325089 340925 -173089
832782272137035264 347417 325320 340902 -173073
832782272155249920 347700 325617 340902 -173087
832782272173464576 347931 325869 340944 -173017
832782272191679232 348089 326022 340934 -173008
832782272209893888 348168 326090 340951 -173026
832782272228108672 348180 326085 340989 -173081
832782272246323328 348215 326083 340911 -173057
832782272264537984 348258 326150 340928 -173041
832782272282752640 348462 326241 340973 -173051
832782272300967296 348627 326502 340989 -173056
832782272319181952 348950 326823 340986 -173070
832782272337396608 349189 327157 340965 -173045
832782272355611264 349531 327407 340967 -173094
832782272373825920 349832 327640 340934 -173024
832782272392040576 349925 327806 340972 -173026
832782272410255360 349824 327687 340885 -173086
832782272428470016 349530 327380 340960 -173093
832782272446684672 349096 326946 340981 -173134
832782272464899328 348522 326359 340978 -173069
832782272483113984 347967 325762 340935 -173116
832782272501328640 347558 325405 340937 -173107
832782272519543296 346994 324923 340894 -173173
832782272537757952 346773 324624 340949 -173111
832782272555972608 346624 324503 340934 -173060
832782272574187264 346639 324486 340920 -173093
832782272592402048 346805 324674 340918 -173057
832782272610616704 347052 324947 340948 -173069
832782272628831360 347392 325249 340994 -172987
832782272647046016 347615 325514 341020 -173100
832782272665260672 347919 325779 341018 -173094
832782272683475328 348062 325953 340983 -173098
832782272701689984 348083 325999 340948 -173078
832782272719904640 348167 326066 340923 -173109
832782272738119296 348177 326100 340860 -173112
832782272756333952 348330 326185 340935 -173071
832782272774548640 348380 326230 340917 -173103
832782272792764032 348496 326410 340935 -173099
832782272810979456 348766 326616 340929 -173048
832782272829195008 349018 326932 340900 -173147
832782272847410432 349371 327318 340921 -173077
832782272865625984 349680 327624 340944 -173096
832782272883841408 349911 327754 340934 -173110
832782272902056832 349888 327746 340929 -173080
832782272920272384 349616 327524 340901 -173079
832782272938487808 349262 327115 340920 -173089
832782272956703232 348759 326654 340969 -173113
832782272974918784 348165 326005 340894 -173091
832782272993134208 347574 325475 340925 -173100
832782273011349760 347108 325000 340920 -173168
832782273029565184 346772 324726 340943 -173108
832782273047780608 346617 324479 340961 -173141
832782273065996160 346578 324514 340922 -173144
832782273084211584 346676 324598 340868 -173112
832782273102427136 346933 324829 340905 -173138
832782273120642560 347187 325071 340862 -173120
832782273138857984 347518 325416 340906 -173097
832782273157073536 347746 325664 340906 -173126
832782273175288960 347972 325914 340954 -173124
832782273193504512 348178 325996 340884 -173092
832782273211719936 348150 326010 340872 -173085
832782273229935360 348158 326038 340903 -173105
832782273248150912 348173 326099 340956 -173095
832782273266366336 348262 326209 340986 -173090
832782273284581760 348431 326311 340944 -173067
832782273302797312 348675 326552 340908 -173044
832782273321012736 348918 326852 340989 -173082
832782273339228288 349243 327148 340933 -173110
832782273357443712 349545 327499 340983 -173091
832782273375659136 349713 327697 340916 -173113
832782273393874688 349872 327806 340967 -173077
832782273412090112 349728 327617 340944 -173112
832782273430305688 349489 327298 340955 -173074
832782273448519552 348948 326877 340954 -173069
832782273466733440 348433 326331 340903 -173085
832782273484947200 347926 325778 340909 -173089
832782273503161088 347378 325252 340916 -173143
832782273521374848 346932 324847 340921 -173151
832782273539588736 346718 324648 340927 -173098
832782273557802624 346578 324508 340987 -173106
832782273576016384 346649 324504 340935 -173087
832782273594230272 346780 324658 340938 -173123
832782273612444160 347058 324929 340922 -173131
832782273630657920 347358 325235 340987 -173073
832782273648871808 347674 325515 341007 -173061
832782273667085568 347888 325769 340932 -173115
832782273685299456 348077 325974 340919 -173090
832782273703513344 348182 326068 340922 -173058
832782273721727104 348224 326095 340952 -173102
832782273739940992 348237 326094 340914 -173113
832782273758154880 348268 326162 340878 -173096
832782273776368640 348319 326206 340900 -173128
832782273794582528 348546 326363 340917 -173125
832782273812796288 348862 326661 340932 -173081
832782273831010176 349078 326946 340879 -173129
832782273849224064 349415 327263 340868 -173097
832782273867437824 349715 327574 340908 -173107
832782273885651712 349978 327827 341005 -173058
832782273903865600 349890 327765 340913 -173043
832782273922079360 349598 327534 340948 -173070
832782273940293248 349252 327092 340939 -173068
832782273958507008 348650 326579 340932 -173087
832782273976720896 348243 326048 340899 -173103
832782273994934784 347627 325514 340934 -173090
832782274013148544 347195 325068 340952 -173093
832782274031362432 346782 324706 340944 -173091
832782274049576320 346579 324455 340926 -173124
832782274067790086 346552 324452 340960 -173124
832782274086004736 346694 324586 340965 -173111
832782274104219392 346956 324837 340979 -173093
832782274122434048 347262 325127 340957 -173081
832782274140648704 347547 325439 340949 -173034
832782274158863360 347823 325644 340979 -173090
832782274177078016 348016 325904 340987 -173051
832782274195292800 348054 325954 340877 -173121
832782274213507456 348185 326007 340894 -173070
832782274231722112 348197 326027 340887 -173100
832782274249936768 348185 326054 340897 -173113
832782274268151424 348354 326159 340898 -173078
832782274286366080 348487 326290 340932 -173077
832782274304580736 348674 326532 340906 -173114
832782274322795392 349036 326877 340949 -173048
832782274341010048 349366 327154 340981 -173057
832782274359224704 349665 327464 340983 -173102
832782274377439488 349861 327731 340925 -173036
832782274395654144 349964 327797 340951 -173010
832782274413868800 349808 327643 340951 -173071
832782274432083456 349433 327299 340905 -173067
832782274450298112 348939 326810 340900 -173044
832782274468512768 348403 326315 340939 -173038
832782274486727424 347885 325857 340913 -173070
832782274504942080 347387 325297 340981 -173065
832782274523156736 346933 324849 340886 -173099
832782274541371392 346663 324565 340927 -173112
832782274559586048 346624 324452 340909 -173145
832782274577800832 346649 324514 340925 -173120
832782274596015488 346841 324694 340934 -173050
832782274614230144 347108 324970 340938 -173090
832782274632444800 347384 325315 340989 -173130
832782274650659456 347638 325513 340913 -173119
832782274668874112 347900 325803 340952 -173119
832782274687088768 348103 325938 340936 -173112
832782274705303424 348143 326065 340866 -173111
832782274723518080 348168 326025 340885 -173160
832782274741732736 348242 326108 340900 -173056
832782274759947520 348273 326177 340932 -173098
832782274778162150 348391 326204 340953 -173077
832782274796378112 348516 326377 340930 -173075
832782274814594048 348771 326705 340966 -173074
832782274832809856 349171 327020 341002 -173031
832782274851025792 349459 327341 340982 -173104
832782274869241728 349808 327609 340951 -173076
832782274887457536 349938 327822 340981 -173078
832782274905673472 349842 327757 341002 -173047
832782274923889280 349642 327487 340933 -173065
832782274942105216 349157 326973 340912 -173108
832782274960321152 348694 326551 340919 -173114
832782274978536960 348124 325972 340983 -173090
832782274996752896 347602 325501 340964 -173069
832782275014968832 347126 325000 340974 -173039
832782275033184640 346786 324687 340950 -173090
832782275051400576 346637 324524 340987 -173042
832782275069616512 346634 324520 340889 -173081
832782275087832320 346696 324644 340948 -173091
832782275106048256 346943 324848 340923 -173113
832782275124264064 347314 325122 340934 -173127
832782275142480000 347574 325421 340935 -173070
832782275160695936 347827 325694 340955 -173048
832782275178911744 348007 325891 340968 -173048
832782275197127680 348079 325987 340915 -173108
832782275215343616 348140 326062 340871 -173121
832782275233559424 348183 326102 340920 -173089
832782275251775360 348232 326123 340982 -173055
832782275269991168 348317 326187 340945 -173037
832782275288207104 348455 326315 340933 -173018
832782275306423040 348713 326563 340863 -173062
832782275324638848 348970 326864 340908 -173079
832782275342854784 349354 327273 340928 -173042
832782275361070720 349607 327538 340953 -173093
832782275379286528 349816 327733 340950 -173067
832782275397502464 349908 327831 340992 -173046
832782275415718268 349726 327631 340935 -173073
832782275433933312 349417 327271 340877 -173068
832782275452148352 348872 326824 340889 -173093
832782275470363264 348333 326245 340864 -173058
832782275488578304 347725 325651 340921 -173123
832782275506793344 347244 325146 340845 -173095
832782275525008384 346895 324768 340916 -173109
832782275543223296 346642 324584 340942 -173034
832782275561438336 346566 324421 340942 -173100
832782275579653376 346677 324522 340878 -173111
832782275597868416 346851 324751 340936 -173124
832782275616083328 347134 325017 340939 -173139
832782275634298368 347359 325235 340930 -173145
832782275652513408 347724 325518 340910 -173107
832782275670728448 347930 325816 340977 -173033
832782275688943360 348050 325952 340982 -173067
832782275707158400 348156 325983 340899 -173062
832782275725373440 348239 326095 340911 -173065
832782275743588480 348184 326107 340887 -173129
832782275761803392 348255 326168 340914 -173121
832782275780018432 348403 326311 340935 -173103
832782275798233472 348549 326490 340903 -173087
832782275816448512 348850 326766 340959 -173078
832782275834663424 349230 327071 341018 -173085
832782275852878464 349505 327372 340929 -173086
832782275871093504 349728 327563 340911 -173120
832782275889308544 349907 327813 340988 -173108
832782275907523456 349852 327681 340868 -173130
832782275925738496 349574 327421 340895 -173143
832782275943953536 349194 327077 340968 -173053
832782275962168576 348593 326469 340915 -173130
832782275980383488 348030 325931 340929 -173078
832782275998598528 347466 325382 340917 -173085
832782276016813568 347042 324931 340836 -173086
832782276035028608 346655 324638 340885 -173149
832782276053243520 346516 324429 340904 -173154
832782276071458534 346545 324492 340899 -173158
832782276089671680 346758 324624 340864 -173150
832782276107884800 346975 324853 340879 -173142
832782276126097920 347281 325160 340940 -173051
832782276144311168 347593 325472 340888 -173090
832782276162524288 347841 325735 340867 -173037
832782276180737408 347975 325929 340905 -173086
832782276198950528 348035 326013 340903 -173123
832782276217163648 348187 326092 341015 -173055
832782276235376768 348184 326107 340938 -173094
832782276253590016 348186 326141 340942 -173075
832782276271803136 348318 326222 340947 -173120
832782276290016256 348477 326376 340923 -173115
832782276308229376 348640 326574 340900 -173153
832782276326442496 348975 326966 340964 -173095
832782276344655616 349303 327196 340919 -173124
832782276362868864 349602 327499 340906 -173133
832782276381081984 349883 327736 340916 -173107
832782276399295104 349918 327779 340959 -173067
832782276417508224 349706 327542 340883 -173096
832782276435721344 349378 327198 340943 -173141
832782276453934592 348902 326740 340961 -173077
832782276472147712 348273 326184 340910 -173105
832782276490360832 347706 325582 340921 -173126
832782276508573952 347232 325100 340880 -173058
832782276526787072 346877 324765 340915 -173067
832782276545000192 346723 324645 340894 -173140
832782276563213440 346660 324581 340972 -173100
832782276581426560 346716 324556 340933 -173098
832782276599639680 346837 324711 340879 -173156
832782276617852800 347188 325064 340922 -173158
832782276636065920 347427 325350 340883 -173144
832782276654279040 347687 325672 340871 -173090
832782276672492288 347921 325798 340910 -173039
832782276690705408 348045 325942 340925 -173116
832782276708918528 348117 325990 340933 -173125
832782276727131662 348192 326090 340900 -173090
832782276745346304 348173 326075 340904 -173112
832782276763560960 348271 326211 340916 -173129
832782276781775616 348403 326352 340893 -173079
832782276799990272 348616 326523 340908 -173027
832782276818204928 348866 326744 340910 -173050
832782276836419584 349197 327100 340931 -173045
832782276854634368 349483 327367 340877 -173146
832782276872849024 349760 327703 340876 -173123
832782276891063680 349870 327711 340911 -173060
832782276909278336 349787 327617 340960 -173050
832782276927492992 349530 327392 340989 -173072
832782276945707648 349096 327000 340922 -173096
832782276963922304 348552 326418 340918 -173057
832782276982136960 348133 325872 340946 -173089
832782277000351616 347515 325366 340922 -173113
832782277018566272 347094 324941 340956 -173059
832782277036781056 346733 324657 340960 -173061
832782277054995712 346644 324455 340930 -173085
832782277073210368 346694 324497 340935 -173011
832782277091425024 346771 324678 340978 -173125
832782277109639680 347080 324947 340979 -173045
832782277127854336 347336 325275 340951 -173108
832782277146068992 347578 325554 340980 -173059
832782277164283648 347945 325799 340939 -173028
832782277182498304 348020 325910 340862 -173060
832782277200712960 348121 326031 340912 -173040
832782277218927616 348212 326081 340940 -173067
832782277237142400 348214 326060 340921 -173076
832782277255357056 348297 326168 341006 -173075
832782277273571712 348338 326188 340946 -173111
832782277291786368 348548 326406 340949 -173159
832782277310001024 348801 326684 340999 -173094
832782277328215680 349103 327026 340966 -173063
832782277346430336 349424 327279 340944 -173120
832782277364644992 349710 327602 340986 -173147
832782277382859648 349904 327765 340936 -173153
832782277401074304 349888 327775 340917 -173119
832782277419289088 349641 327538 340891 -173109
832782277437503720 349311 327178 340919 -173062
832782277455719040 348853 326709 340957 -173090
832782277473934336 348279 326079 340979 -173062
832782277492149632 347704 325572 340940 -173085
832782277510364928 347215 325064 340905 -173080
832782277528580096 346940 324743 341012 -173045
832782277546795392 346706 324523 340934 -173002
832782277565010688 346637 324534 340956 -173057
832782277583225984 346738 324581 340927 -173043
832782277601441280 346933 324838 340937 -173031
832782277619656576 347264 325099 340930 -173024
832782277637871872 347479 325361 340938 -173117
832782277656087168 347768 325650 340966 -173111
832782277674302336 347961 325907 340967 -173060
832782277692517632 348173 326050 340992 -173051
832782277710732928 348224 326067 340911 -173030
832782277728948224 348208 326125 340911 -173133
832782277747163520 348260 326184 340977 -173092
832782277765378816 348257 326203 340970 -173124
832782277783594112 348434 326303 340967 -173071
832782277801809280 348639 326578 340936 -173059
832782277820024576 348943 326850 340991 -173069
832782277838239872 349209 327111 340959 -173070
832782277856455168 349500 327419 340971 -173114
832782277874670464 349825 327715 340934 -173068
832782277892885760 349943 327805 340942 -173065
832782277911101056 349826 327726 340957 -173055
832782277929316224 349511 327376 340929 -173100
832782277947531520 349033 326928 340948 -173143
832782277965746816 348530 326487 340969 -173067
832782277983962112 347951 325763 340904 -173120
832782278002177408 347417 325359 340960 -173099
832782278020392704 346997 324914 340910 -173120
832782278038608000 346692 324626 340913 -173106
832782278056823296 346592 324489 340891 -173080
832782278075038476 346613 324494 340889 -173102
832782278093253888 346770 324656 340919 -173070
832782278111469312 347036 324955 340949 -173055
832782278129684736 347373 325254 340954 -173019
832782278147900160 347645 325531 340900 -173063
832782278166115584 347862 325751 340913 -173070
832782278184331008 348035 325916 340936 -173109
832782278202546304 348135 326006 340935 -173091
832782278220761728 348202 326058 340932 -173063
832782278238977152 348183 326119 340893 -173040
832782278257192576 348279 326138 340929 -172990
832782278275408000 348382 326221 340900 -173061
832782278293623424 348521 326422 340895 -173059
832782278311838848 348825 326655 340922 -173070
832782278330054272 349099 326945 340891 -173106
832782278348269696 349402 327248 340852 -173146
832782278366485120 349708 327609 340906 -173095
832782278384700416 349867 327704 340898 -173110
832782278402915840 349888 327730 340894 -173113
832782278421131264 349686 327497 340942 -173096
832782278439346688 349284 327142 340957 -173068
832782278457562112 348760 326572 340861 -173125
832782278475777536 348134 326023 340868 -173058
832782278493992960 347670 325493 340882 -173070
832782278512208384 347161 325097 340906 -173095
832782278530423808 346867 324750 340905 -173074
832782278548639232 346581 324486 340862 -173183
832782278566854656 346577 324451 340896 -173172
832782278585069952 346681 324554 340854 -173148
832782278603285376 346965 324764 340968 -173103
832782278621500800 347230 325112 340893 -173123
832782278639716224 347508 325377 340887 -173132
832782278657931648 347742 325649 340936 -173056
832782278676147072 348018 325871 340940 -173070
832782278694362496 348116 325946 340920 -173096
832782278712577920 348154 326074 340909 -173153
832782278730793344 348243 326111 340914 -173073
832782278749008768 348217 326088 340922 -173088
832782278767224064 348259 326146 340917 -173070
832782278785439532 348482 326291 340922 -173071
832782278803655680 348669 326490 340913 -173091
832782278821871872 348953 326787 340940 -173097
832782278840088064 349233 327157 340876 -173107
832782278858304256 349574 327493 340927 -173092
832782278876520448 349836 327679 340948 -173033
832782278894736640 349913 327811 340951 -173016
832782278912952832 349761 327703 340891 -173071
832782278931169024 349481 327324 340939 -173092
832782278949385216 348928 326793 340888 -173113
832782278967601408 348387 326270 340878 -173139
832782278985817600 347871 325777 340919 -173148
832782279004033792 347334 325197 340916 -173112
832782279022249984 346983 324814 340943 -173047
832782279040466176 346796 324693 340922 -173092
832782279058682368 346633 324513 340903 -173065
832782279076898560 346617 324457 340910 -173093
832782279095114752 346812 324658 340910 -173042
832782279113330944 347100 324996 340876 -173057
832782279131547136 347322 325215 340869 -173115
832782279149763328 347665 325473 340900 -173089
832782279167979520 347910 325715 340912 -173067
832782279186195712 348081 325908 340945 -173127
832782279204411904 348137 325975 340900 -173162
832782279222628096 348226 326061 340927 -173080
832782279240844288 348205 326098 340955 -173080
832782279259060480 348223 326110 340909 -173127
832782279277276672 348352 326217 340896 -173093
832782279295492864 348487 326371 340819 -173070
832782279313709056 348801 326663 340875 -173108
832782279331925376 349159 326996 340932 -173067
832782279350141568 349402 327317 340909 -173089
832782279368357760 349719 327617 340915 -173086
832782279386573952 349889 327771 340893 -173123
832782279404790144 349790 327728 340870 -173117
832782279423006336 349645 327464 340872 -173115
832782279441222528 349231 327019 340911 -173079
832782279459438718 348727 326559 340901 -173110
832782279477654912 348065 326018 340835 -173117
832782279495871104 347556 325514 340946 -173105
832782279514087296 347103 324966 340913 -173095
832782279532303488 346766 324617 340927 -173078
832782279550519680 346613 324500 340902 -173068
832782279568735872 346578 324457 340914 -173074
832782279586952064 346716 324645 340891 -173081
832782279605168256 346933 324779 340876 -173087
832782279623384448 347248 325131 340998 -173065
832782279641600640 347516 325336 340888 -173075
832782279659816832 347804 325648 340913 -173115
832782279678033024 347978 325814 340914 -173099
832782279696249216 348123 325966 340977 -173095
832782279714465408 348180 326043 340923 -173085
832782279732681600 348164 326072 340851 -173153
832782279750897792 348255 326130 340909 -173056
832782279769113984 348276 326181 340916 -173054
832782279787330176 348503 326365 340959 -173026
832782279805546368 348664 326543 340916 -173132
832782279823762560 348964 326845 340910 -173122
832782279841978752 349228 327124 340876 -173095
832782279860194944 349574 327431 340855 -173100
832782279878411136 349867 327670 340946 -173045
832782279896627328 349918 327728 340898 -173052
832782279914843520 349742 327651 340921 -173060
832782279933059712 349384 327350 340954 -173079
832782279951275904 348920 326827 340995 -173081
832782279969492096 348379 326303 340996 -173091
832782279987708288 347815 325694 340916 -173119
832782280005924608 347300 325229 340963 -173081
832782280024140800 346910 324727 340892 -173107
832782280042356992 346720 324558 340951 -173068
832782280060573184 346614 324461 340916 -173075
832782280078789376 346693 324537 340923 -173037
832782280097005568 346830 324733 340979 -173085
832782280115221760 347110 325072 340954 -173030
832782280133437904 347386 325320 340895 -173060
832782280151653376 347699 325559 340880 -173081
832782280169868800 347911 325823 340900 -173126
832782280188084096 348117 325982 340944 -173086
832782280206299520 348191 326065 340914 -173082
832782280224514816 348268 326101 340898 -173057
832782280242730240 348267 326151 340894 -173069
832782280260945536 348262 326149 340875 -173105
832782280279160960 348327 326290 340858 -173126
832782280297376384 348514 326441 340908 -173125
832782280315591680 348846 326706 340892 -173078
832782280333807104 349132 327034 340952 -173100
832782280352022400 349479 327362 340914 -173096
832782280370237824 349629 327575 340892 -173103
832782280388453120 349888 327753 340930 -173103
832782280406668544 349799 327680 340949 -173090
832782280424883968 349579 327436 340962 -173125
832782280443099264 349173 326959 340829 -173088
832782280461314688 348581 326426 340897 -173116
832782280479529984 348000 325908 340960 -173098
832782280497745408 347475 325420 340930 -173122
832782280515960704 347063 324965 340892 -173115
832782280534176128 346737 324622 340896 -173149
832782280552391552 346613 324466 340913 -173081
832782280570606848 346633 324490 340929 -173089
832782280588822272 346787 324606 340926 -173072
832782280607037568 346997 324804 340917 -173074
832782280625252992 347346 325150 340915 -173048
832782280643468288 347592 325427 340947 -173038
832782280661683712 347806 325659 340898 -173085
832782280679899136 348000 325867 340897 -173122
832782280698114432 348141 325947 340902 -173105
832782280716329856 348172 326021 340916 -173113
832782280734545152 348209 326110 340899 -173090
832782280752760576 348250 326091 340864 -173051
832782280770975872 348353 326232 340887 -173079
832782280789191296 348495 326391 340911 -173109
832782280807406572 348687 326565 340923 -173089
832782280825622784 349031 326906 340946 -173120
832782280843838976 349388 327203 340899 -173140
832782280862055168 349652 327501 340918 -173080
832782280880271360 349873 327782 340953 -173052
832782280898487552 349883 327732 340889 -173021
832782280916703744 349714 327600 340899 -173050
832782280934919936 349369 327219 340928 -173042
832782280953136128 348815 326772 340939 -173121
832782280971352320 348287 326125 340887 -173140
832782280989568512 347692 325633 340885 -173093
832782281007784704 347217 325111 340918 -173086
832782281026000896 346867 324731 340925 -173093
832782281044217088 346664 324499 340935 -173097
832782281062433280 346635 324538 340962 -173116
832782281080649472 346672 324559 340909 -173082
832782281098865664 346844 324769 340948 -173124
832782281117081856 347139 325001 340934 -173061
832782281135298048 347456 325309 340969 -173053
832782281153514240 347714 325597 340861 -173100
832782281171730432 347928 325835 340918 -173093
832782281189946624 348044 325954 340850 -173099
832782281208162816 348173 326105 340888 -173100
832782281226379008 348226 326077 340922 -173073
832782281244595200 348203 326078 340966 -173094
832782281262811392 348287 326095 340894 -173050
832782281281027584 348444 326224 340915 -173051
832782281299243776 348603 326427 340900 -173044
832782281317459968 348854 326652 340934 -173061
832782281335676160 349201 327051 340956 -173091
832782281353892480 349543 327430 340972 -173042
832782281372108672 349775 327602 340940 -173078
832782281390324864 349982 327733 340946 -173000
832782281408541056 349839 327713 341004 -173023
832782281426757248 349521 327454 340943 -173079
832782281444973440 349101 326993 340893 -173081
832782281463189564 348593 326493 340919 -173091
832782281481403904 348010 325891 340917 -173147
832782281499618304 347428 325393 340945 -173092
832782281517832832 347006 324934 340953 -173075
832782281536047232 346764 324624 340933 -173095
832782281554261760 346578 324497 340898 -173114
832782281572476160 346603 324506 340878 -173078
832782281590690560 346754 324659 340891 -173047
832782281608905088 347014 324909 340926 -173033
832782281627119488 347358 325223 340949 -173076
832782281645334016 347612 325498 340898 -173078
832782281663548416 347825 325733 340935 -173074
832782281681762816 348050 325905 340960 -173056
832782281699977344 348106 325999 340931 -173105
832782281718191744 348164 326034 340909 -173079
832782281736406144 348252 326128 340953 -173055
832782281754620672 348283 326119 340997 -173063
832782281772835072 348388 326168 340935 -173077
832782281791049600 348543 326313 340914 -173057
832782281809264000 348723 326563 340883 -173065
832782281827478400 349077 326925 340995 -173077
832782281845692928 349428 327214 340949 -173044
832782281863907328 349703 327482 340999 -173077
832782281882121856 349875 327717 340902 -173055
832782281900336256 349885 327731 340894 -173113
832782281918550656 349732 327534 340903 -173063
832782281936765184 349328 327160 340868 -173040
832782281954979584 348856 326698 340939 -173076
832782281973194112 348419 326161 340921 -173033
832782281991408512 347712 325642 340930 -173163
832782282009622912 347241 325148 340938 -173130
832782282027837440 346885 324781 340988 -173042
832782282046051840 346693 324555 340998 -173055
832782282064266368 346656 324498 340966 -173103
832782282082480768 346752 324537 340988 -173058
832782282100695322 346910 324826 340948 -173059
832782282118910720 347223 325018 340899 -173122
832782282137126144 347539 325411 340943 -173073
832782282155341568 347799 325684 340916 -173089
832782282173556992 347985 325859 340916 -173094
832782282191772416 348085 325945 340904 -173103
832782282209987840 348183 326006 340923 -173068
832782282228203136 348270 326116 340928 -173043
832782282246418560 348300 326054 340918 -173070
832782282264633984 348340 326201 340930 -173056
832782282282849408 348444 326324 340929 -173062
832782282301064832 348653 326534 340954 -173067
832782282319280256 348918 326818 340955 -173014
832782282337495680 349279 327085 340932 -173042
832782282355711104 349525 327366 340892 -173123
832782282373926528 349781 327691 340919 -173085
832782282392141952 349935 327897 340972 -173043
832782282410357248 349779 327729 340967 -173065
832782282428572672 349469 327410 340909 -173108
832782282446788096 349113 326924 340954 -173104
832782282465003520 348482 326384 340903 -173076
832782282483218944 347948 325802 340921 -173052
832782282501434368 347420 325394 340961 -173041
832782282519649792 347023 324906 340942 -173113
832782282537865216 346681 324614 340932 -173089
832782282556080640 346601 324469 340927 -173093
832782282574296064 346601 324454 340896 -173127
832782282592511488 346764 324654 340902 -173074
832782282610726784 347012 324882 340877 -173059
832782282628942208 347382 325226 340933 -173078
832782282647157632 347610 325510 340945 -173098
832782282665373056 347916 325685 340920 -173139
832782282683588480 348051 325979 340965 -173110
832782282701803904 348160 326008 340906 -173095
832782282720019328 348188 326052 340926 -173129
832782282738234752 348255 326069 340926 -173070
832782282756450176 348258 326086 340913 -173109
832782282774665600 348392 326210 340928 -173011
832782282792880896 348549 326363 340911 -173061
832782282811096378 348782 326574 340940 -173065
832782282829311232 349085 326921 340906 -173038
832782282847526144 349474 327249 340913 -173042
832782282865741056 349695 327543 340911 -173093
832782282883955968 349926 327758 340885 -173097
832782282902171008 349907 327748 340912 -173096
832782282920385920 349676 327510 340936 -173079
832782282938600832 349338 327146 340957 -173075
832782282956815744 348835 326652 340968 -173010
832782282975030656 348226 326077 340901 -173063
832782282993245568 347743 325618 340997 -173018
832782283011460480 347205 325011 340946 -173089
832782283029675520 346876 324731 340988 -173062
832782283047890432 346642 324513 340955 -173075
832782283066105344 346579 324465 340952 -173078
832782283084320256 346729 324619 341025 -173030
832782283102535168 346938 324754 340930 -173067
832782283120750080 347257 325136 340973 -173041
832782283138964992 347514 325388 340965 -173057
832782283157180032 347850 325750 340972 -173062
832782283175394944 348014 325904 340979 -173020
832782283193609856 348123 325999 340917 -173073
832782283211824768 348194 326060 340917 -173081
832782283230039680 348242 326166 340967 -173053
832782283248254592 348195 326124 340938 -173044
832782283266469504 348249 326162 340909 -173121
832782283284684416 348409 326322 340864 -173093
832782283302899456 348662 326588 340938 -173089
832782283321114368 348938 326803 340952 -173073
832782283339329280 349236 327151 340903 -173003
832782283357544192 349584 327477 340964 -173030
832782283375759104 349795 327679 340918 -173077
832782283393974016 349919 327809 340954 -173014
832782283412188928 349734 327619 340919 -173102
832782283430403968 349504 327306 340937 -173067
832782283448618924 349004 326880 340951 -173093
832782283466832512 348443 326347 340931 -173099
832782283485046144 347995 325761 340983 -173062
832782283503259776 347375 325192 340883 -173105
832782283521473280 346904 324806 340858 -173149
832782283539686912 346692 324565 340902 -173096
832782283557900544 346582 324447 340861 -173102
832782283576114176 346629 324538 340917 -173111
832782283594327808 346788 324683 340875 -173140
832782283612541440 347091 324957 340972 -173062
832782283630754944 347339 325235 340916 -173127
832782283648968576 347655 325545 340949 -173082
832782283667182208 347849 325762 340880 -173065
832782283685395840 348051 325894 340872 -173077
832782283703609472 348200 326055 340872 -173080
832782283721822976 348237 326073 340900 -173052
832782283740036608 348252 326081 340915 -173056
832782283758250240 348284 326062 340852 -173076
832782283776463872 348404 326221 340848 -173058
832782283794677504 348599 326381 340902 -173041
832782283812891136 348805 326767 340987 -173069
832782283831104640 349149 327004 340853 -173117
832782283849318272 349516 327361 340851 -173100
832782283867531904 349707 327592 340931 -173109
832782283885745536 349892 327759 340948 -173099
832782283903959168 349844 327778 340973 -173124
832782283922172672 349606 327440 340880 -173053
832782283940386304 349260 327135 340914 -173058
832782283958599936 348735 326633 340906 -173085
832782283976813568 348141 326035 340893 -173132
832782283995027200 347584 325509 340862 -173126
832782284013240832 347140 324999 340869 -173120
832782284031454336 346801 324718 340963 -173130
832782284049667968 346641 324473 340956 -173105
832782284067881600 346645 324473 340969 -173027
832782284086095232 346773 324602 340915 -173041
832782284104308836 346991 324824 340922 -173055
832782284122522880 347261 325150 340921 -173076
832782284140736896 347546 325398 340899 -173087
832782284158950912 347821 325679 340932 -173065
832782284177164928 348018 325882 340953 -173044
832782284195378944 348132 325965 340902 -173057
832782284213592960 348208 326040 340887 -173115
832782284231806976 348274 326086 340974 -173037
832782284250020992 348339 326090 340908 -173065
832782284268235008 348382 326155 340902 -173061
832782284286449024 348457 326327 340978 -173086
832782284304663040 348698 326515 340915 -173080
832782284322877056 349008 326791 340934 -173093
832782284341091072 349310 327137 340923 -173109
832782284359305088 349617 327491 340970 -173037
832782284377519104 349853 327642 340861 -173094
832782284395733120 349932 327758 340898 -173039
832782284413947136 349841 327654 340936 -173105
832782284432161152 349475 327305 340943 -173069
832782284450375168 348987 326813 340892 -173102
832782284468589184 348445 326281 340927 -173129
832782284486803200 347836 325716 340916 -173075
832782284505017216 347321 325196 340891 -173058
832782284523231232 346888 324773 340874 -173089
832782284541445248 346815 324678 340896 -173090
832782284559659264 346705 324479 340838 -173088
832782284577873280 346710 324478 340879 -173126
832782284596087296 346833 324660 340875 -173099
832782284614301312 347117 324933 340866 -173145
832782284632515328 347392 325293 340932 -173079
832782284650729344 347688 325569 340965 -173076
832782284668943360 347930 325731 340882 -173114
832782284687157376 348035 325897 340932 -173081
832782284705371392 348115 326041 340901 -173093
832782284723585408 348199 326095 340915 -173133
832782284741799340 348204 326085 340904 -173055
832782284760014848 348285 326195 340982 -173012
832782284778230400 348389 326221 340947 -173053
832782284796445824 348625 326445 340943 -173090
832782284814661376 348901 326725 340938 -173106
832782284832876800 349222 326986 340916 -173061
832782284851092352 349429 327318 340908 -173079
832782284869307776 349719 327621 340929 -173050
832782284887523328 349849 327742 340899 -173033
832782284905738752 349855 327708 340933 -173099
832782284923954304 349600 327499 340904 -173078
832782284942169728 349155 327153 340929 -173023
832782284960385280 348647 326547 340951 -173048
832782284978600704 348085 326014 340948 -173099
832782284996816256 347505 325484 340960 -173112
832782285015031808 347079 324976 340942 -173110
832782285033247232 346786 324643 340911 -173078
832782285051462784 346587 324441 340916 -173117
832782285069678208 346648 324483 340918 -173050
832782285087893760 346721 324610 340955 -173139
832782285106109184 346980 324813 340951 -173110
832782285124324736 347299 325106 340972 -173064
832782285142540160 347538 325416 340891 -173117
832782285160755712 347845 325664 340940 -173076
832782285178971136 348044 325846 340900 -173037
832782285197186688 348163 325975 340850 -173110
832782285215402112 348120 325999 340885 -173157
832782285233617664 348262 326022 340871 -173074
832782285251833216 348274 326065 340891 -173087
832782285270048640 348359 326175 340918 -173120
832782285288264192 348489 326350 340920 -173064
832782285306479616 348693 326555 340947 -173060
832782285324695168 348998 326826 340866 -173138
832782285342910592 349312 327193 340935 -173080
832782285361126144 349586 327425 340871 -173129
832782285379341568 349813 327697 340866 -173127
832782285397557120 349864 327741 340885 -173098
832782285415772580 349751 327601 340899 -173073
832782285433988096 349417 327277 340899 -173080
832782285452203648 348821 326787 340888 -173137
832782285470419200 348338 326249 340945 -173097
832782285488634752 347765 325645 340898 -173092
832782285506850304 347296 325202 340929 -173056
832782285525065856 346923 324819 340940 -173069
832782285543281280 346725 324631 340921 -173053
832782285561496832 346604 324507 340944 -173100
832782285579712384 346712 324599 340962 -173063
832782285597927936 346880 324714 340912 -173126
832782285616143488 347137 325038 340944 -173068
832782285634359040 347498 325315 340918 -173063
832782285652574592 347734 325573 340927 -173075
832782285670790144 347909 325765 340904 -173097
832782285689005696 348078 325905 340880 -173060
832782285707221248 348248 326007 340878 -173111
832782285725436800 348234 326071 340878 -173130
832782285743652224 348228 326051 340898 -173096
832782285761867776 348245 326178 340921 -173100
832782285780083328 348350 326271 340939 -173072
832782285798298880 348600 326468 340935 -173071
832782285816514432 348868 326739 340937 -173063
832782285834729984 349181 327047 340880 -173100
832782285852945536 349539 327388 340937 -173000
832782285871161088 349811 327624 340902 -173044
832782285889376640 349952 327805 340921 -173058
832782285907592192 349871 327724 340932 -173067
832782285925807744 349576 327518 340963 -173026
832782285944023168 349108 327014 340913 -173062
832782285962238720 348618 326483 340949 -173094
832782285980454272 348139 325907 340985 -173033
832782285998669824 347571 325424 340978 -173081
832782286016885376 347246 325095 340915 -173065
832782286035100928 346875 324747 340979 -173064
832782286053316490 346666 324536 340952 -173073
832782286071531904 346633 324514 340942 -173096
832782286089747328 346804 324688 340922 -173080
832782286107962752 347014 324890 340883 -173099
832782286126178304 347282 325172 340933 -173105
832782286144393728 347619 325491 340902 -173039
832782286162609152 347854 325707 340928 -173059
832782286180824576 348070 325965 340984 -173021
832782286199040000 348136 326045 340961 -173062
832782286217255552 348171 326089 340957 -173063
832782286235470976 348248 326101 340973 -173008
832782286253686400 348259 326145 340921 -173097
832782286271901824 348321 326237 340898 -173027
832782286290117376 348498 326384 340930 -173076
832782286308332800 348701 326583 340938 -173036
832782286326548224 349036 326864 340910 -173057
832782286344763648 349418 327235 340944 -173028
832782286362979072 349724 327578 340980 -173054
832782286381194624 349959 327700 340940 -173035
832782286399410048 349908 327792 340940 -173058
832782286417625472 349723 327585 340869 -173044
832782286435840896 349296 327164 340869 -173097
832782286454056320 348889 326662 340911 -173031
832782286472271872 348412 326176 340952 -173063
832782286490487296 347791 325639 340954 -173003
832782286508702720 347281 325162 340954 -172988
832782286526918144 347009 324919 340937 -173051
832782286545133568 346728 324641 340895 -173033
832782286563349120 346677 324498 340901 -173089
832782286581564544 346659 324587 340885 -173086
832782286599779968 346928 324801 340965 -173046
832782286617995392 347128 325031 340928 -173021
832782286636210816 347444 325356 340956 -173060
832782286654426368 347716 325566 340923 -173080
832782286672641792 348019 325815 340861 -173103
832782286690857216 348179 326014 340945 -173093
832782286709072640 348198 326088 340904 -173130
832782286727288192 348259 326139 340932 -173053
832782286745503616 348273 326126 340948 -173087
832782286763719072 348255 326107 340919 -173078
832782286781933696 348484 326326 340971 -173058
832782286800148352 348663 326510 340919 -173102
832782286818363008 348957 326830 340946 -173149
832782286836577664 349255 327042 340888 -173133
832782286854792320 349577 327354 340935 -173143
832782286873006976 349834 327654 340950 -173082
832782286891221760 349901 327808 340950 -173109
832782286909436416 349822 327693 340962 -173097
832782286927651072 349515 327438 340947 -173103
832782286945865728 349119 327024 340906 -173046
832782286964080384 348539 326400 340874 -173095
832782286982295040 348029 325867 340937 -173116
832782287000509696 347488 325345 340963 -173063
832782287018724352 346968 324863 340879 -173124
832782287036939008 346690 324557 340896 -173139
832782287055153664 346524 324393 340875 -173132
832782287073368448 346591 324483 340876 -173130
832782287091583104 346817 324637 340840 -173107
832782287109797760 347018 324913 340835 -173131
832782287128012416 347301 325194 340858 -173138
832782287146227072 347616 325508 340954 -173114
832782287164441728 347889 325711 340898 -173064
832782287182656384 348077 325870 340950 -173062
832782287200871040 348153 325981 340888 -173052
832782287219085696 348202 326055 340854 -173086
832782287237300352 348236 326084 340875 -173104
832782287255515136 348311 326098 340915 -173031
832782287273729792 348343 326191 340891 -173062
832782287291944448 348494 326371 340893 -173056
832782287310159104 348732 326569 340916 -173124
832782287328373760 349074 326952 340939 -173088
832782287346588416 349386 327310 340932 -173054
832782287364803072 349648 327498 340934 -173138
832782287383017728 349902 327828 340948 -173075
832782287401232384 349920 327779 340895 -173080
832782287419447132 349767 327617 340981 -173079
832782287437661824 349356 327139 340934 -173062
832782287455876480 348848 326659 340913 -173068
832782287474091136 348256 326108 340909 -173115
832782287492305792 347709 325586 340914 -173037
832782287510520448 347212 325095 340914 -173105
832782287528735104 346886 324782 340982 -173047
832782287546949888 346630 324528 340912 -173068
832782287565164544 346632 324500 340936 -173038
832782287583379200 346761 324627 340955 -173056
832782287601593856 346920 324770 340937 -173120
832782287619808512 347242 325065 340903 -173094
832782287638023168 347533 325418 340978 -173043
832782287656237824 347775 325664 340900 -173048
832782287674452480 347966 325831 340885 -173085
832782287692667136 348161 326007 340928 -173086
832782287710881792 348223 326105 340921 -173042
832782287729096576 348237 326157 340915 -173087
832782287747311232 348199 326103 340916 -173010
832782287765525888 348309 326221 340935 -173050
832782287783740544 348444 326328 340917 -173056
832782287801955200 348726 326501 340927 -173027
832782287820169856 348951 326832 340876 -173055
832782287838384512 349297 327127 340913 -173064
832782287856599168 349539 327433 340883 -173106
832782287874813824 349808 327644 340871 -173117
832782287893028480 349873 327730 340914 -173112
832782287911243264 349808 327662 340938 -173064
832782287929457920 349498 327290 340833 -173129
832782287947672576 348973 326884 340883 -173030
832782287965887232 348463 326392 340921 -173098
832782287984101888 347873 325802 340915 -173061
832782288002316544 347451 325391 340901 -173142
832782288020531200 347004 324916 340862 -173161
832782288038745856 346718 324594 340874 -173159
832782288056960512 346603 324450 340903 -173120
832782288075175192 346642 324491 340915 -173104
832782288093389056 346798 324589 340832 -173112
832782288111602944 347038 324863 340852 -173140
832782288129816704 347328 325140 340874 -173129
832782288148030592 347634 325484 340914 -173089
832782288166244480 347872 325760 340960 -173079
832782288184458240 348044 325919 340902 -173067
832782288202672128 348118 325988 340934 -173125
832782288220886016 348186 326027 340889 -173120
832782288239099776 348185 326062 340878 -173125
832782288257313664 348254 326112 340956 -173039
832782288275527552 348375 326168 340953 -173078
832782288293741312 348546 326324 340946 -173074
832782288311955200 348753 326615 340902 -173086
832782288330168960 349096 326889 340894 -173080
832782288348382848 349420 327307 340901 -173073
832782288366596736 349725 327588 340931 -173042
832782288384810496 349915 327764 340923 -173075
832782288403024384 349869 327743 340884 -173094
832782288421238272 349683 327529 340936 -173076
832782288439452032 349283 327105 340964 -173067
832782288457665920 348764 326645 340931 -173075
832782288475879808 348178 326055 340894 -173093
832782288494093568 347745 325511 340895 -173034
832782288512307456 347373 325160 340950 -173062
832782288530521344 346958 324739 340900 -173089
832782288548735104 346714 324509 340918 -173082
832782288566948992 346607 324453 340870 -173128
832782288585162880 346689 324529 340870 -173141
832782288603376640 346989 324804 340877 -173057
832782288621590528 347269 325048 340937 -173111
832782288639804416 347481 325370 340859 -173094
832782288658018176 347776 325706 340879 -173116
832782288676232064 347995 325860 340897 -173062
832782288694445952 348068 326014 340896 -173103
832782288712659712 348214 326051 340895 -173106
832782288730873600 348262 326068 340911 -173112
832782288749087402 348245 326112 340968 -173113
832782288767301376 348350 326178 340921 -173091
832782288785515392 348514 326338 340930 -173023
832782288803729280 348723 326546 340889 -173092
832782288821943296 348972 326820 340859 -173031
832782288840157184 349339 327137 340921 -173051
832782288858371200 349578 327492 340888 -173093
832782288876585216 349832 327697 340902 -173031
832782288894799104 349903 327776 340876 -173057
832782288913013120 349749 327597 340846 -173141
832782288931227136 349435 327315 340881 -173125
832782288949441024 348976 326861 340915 -173045
832782288967655040 348440 326303 340881 -173023
832782288985868928 347842 325746 340852 -173053
832782289004082944 347373 325201 340946 -173110
832782289022296960 347073 324963 340934 -173085
832782289040510848 346767 324623 340863 -173090
832782289058724864 346625 324481 340835 -173069
832782289076938752 346727 324519 340901 -173052
832782289095152768 346873 324737 340884 -173085
832782289113366784 347133 325028 340950 -173088
832782289131580672 347450 325361 340987 -173076
832782289149794688 347711 325598 340946 -173128
832782289168008704 347929 325789 340925 -173062
832782289186222592 348055 326005 340908 -173074
832782289204436608 348132 326070 340933 -173062
832782289222650496 348214 326107 340896 -173091
832782289240864512 348216 326095 340880 -173069
832782289259078528 348297 326167 340921 -173017
832782289277292416 348335 326194 340858 -173053
832782289295506432 348567 326412 340891 -173067
832782289313720448 348783 326683 340843 -173088
832782289331934336 349122 326998 340853 -173040
832782289350148352 349466 327297 340867 -173075
832782289368362240 349781 327608 340888 -173058
832782289386576256 349921 327792 340921 -173074
832782289404790272 349833 327696 340825 -173089
832782289423004182 349590 327456 340837 -173130
832782289441218176 349269 327077 340911 -173060
832782289459432192 348700 326567 340928 -173076
832782289477646208 348121 325982 340874 -173089
832782289495860224 347581 325463 340913 -173096
832782289514074240 347109 325044 340909 -173125
832782289532288256 346904 324846 340923 -173075
832782289550502272 346604 324475 340820 -173171
832782289568716288 346637 324536 340870 -173075
832782289586930304 346756 324636 340947 -173056
832782289605144320 346965 324830 340972 -173058
832782289623358336 347286 325112 340916 -173040
832782289641572352 347651 325443 340959 -173019
832782289659786368 347849 325676 340918 -173067
832782289678000384 348023 325870 340904 -173064
832782289696214400 348163 326024 340932 -173019
832782289714428416 348177 326048 340851 -173105
832782289732642432 348219 326059 340871 -173127
832782289750856448 348208 326142 340850 -173127
832782289769070464 348290 326159 340901 -173070
832782289787284480 348476 326330 340932 -173025
832782289805498496 348700 326545 340925 -173063
832782289823712512 348991 326876 340952 -173085
832782289841926528 349320 327178 340905 -173067
832782289860140544 349597 327456 340903 -173112
832782289878354560 349826 327754 340904 -173085
832782289896568576 349856 327806 340888 -173060
832782289914782592 349688 327601 340845 -173078
832782289932996608 349374 327285 340913 -173082
832782289951210624 348905 326826 340923 -173070
832782289969424640 348327 326195 340903 -173011
832782289987638656 347738 325659 340881 -173068
832782290005852672 347275 325161 340902 -173016
832782290024066688 346925 324690 340920 -173070
832782290042280704 346639 324526 340915 -173040
832782290060494686 346546 324419 340948 -173073
832782290078708608 346628 324541 340952 -173072
832782290096922496 346808 324777 340925 -173076
832782290115136512 347130 324979 340883 -173099
832782290133350400 347448 325267 340934 -173077
832782290151564288 347739 325545 340879 -173094
832782290169778176 347928 325769 340860 -173080
832782290187992192 348101 325970 340942 -173092
832782290206206080 348130 326028 340915 -173087
832782290224419968 348163 326110 340945 -173054
832782290242633984 348249 326140 340922 -173079
832782290260847872 348213 326111 340879 -173117
832782290279061760 348403 326294 340933 -173111
832782290297275648 348521 326372 340897 -173132
832782290315489664 348896 326697 340991 -173033
832782290333703552 349212 326990 340927 -173069
832782290351917440 349505 327364 340985 -173064
832782290370131456 349725 327552 340876 -173114
832782290388345344 349862 327749 340867 -173109
832782290406559232 349782 327669 340860 -173110
832782290424773120 349522 327413 340894 -173082
832782290442987136 349040 326981 340859 -173107
832782290461201024 348544 326432 340823 -173088
832782290479414912 348037 325932 340895 -173093
832782290497628928 347634 325519 340911 -173082
832782290515842816 347143 325018 340886 -173067
832782290534056704 346821 324633 340898 -173088
832782290552270592 346625 324491 340897 -173056
832782290570484608 346588 324469 340829 -173078
832782290588698496 346764 324653 340882 -173078
832782290606912384 346988 324847 340853 -173109
832782290625126400 347273 325122 340917 -173126
832782290643340288 347563 325465 340939 -173117
832782290661554176 347791 325678 340877 -173038
832782290679768192 348006 325874 340898 -173073
832782290697982080 348123 325999 340920 -173128
832782290716195968 348131 326026 340881 -173065
832782290734409856 348154 326058 340889 -173111
832782290752623872 348206 326118 340929 -173096
832782290770837758 348236 326145 340858 -173136
832782290789051136 348495 326312 340918 -173086
832782290807264512 348724 326581 340956 -173091
832782290825478016 349016 326889 340906 -173110
832782290843691392 349334 327226 340926 -173082
832782290861904896 349590 327435 340843 -173147
832782290880118272 349881 327700 340847 -173063
832782290898331776 349908 327748 340876 -173087
832782290916545152 349756 327689 340908 -173068
832782290934758656 349364 327263 340894 -173093
832782290952972032 348864 326754 340872 -173119
832782290971185536 348316 326176 340932 -173140
832782290989398912 347762 325621 340896 -173179
832782291007612416 347390 325247 340918 -173057
832782291025825792 346932 324781 340881 -173150
832782291044039296 346668 324562 340877 -173056
832782291062252672 346598 324494 340876 -173034
832782291080466176 346692 324559 340938 -173013
832782291098679552 346783 324720 340903 -173093
832782291116893056 347158 325023 340896 -173081
832782291135106432 347473 325258 340879 -173077
832782291153319936 347718 325576 340875 -173070
832782291171533312 348004 325832 340964 -173102
832782291189746816 348086 325883 340909 -173075
832782291207960192 348215 326018 340904 -173081
832782291226173696 348211 326086 340919 -173089
832782291244387072 348253 326087 340912 -173081
832782291262600576 348290 326156 340868 -173104
832782291280813952 348388 326294 340846 -173116
832782291299027456 348584 326509 340956 -173081
832782291317240832 348821 326682 340909 -173131
832782291335454336 349218 327076 340930 -173060
832782291353667712 349494 327351 340895 -173108
832782291371881216 349728 327577 340898 -173062
832782291390094592 349923 327771 340910 -173087
832782291408308096 349795 327649 340943 -173076
832782291426521568 349569 327477 340970 -173055
832782291444735360 349144 327005 340943 -173062
832782291462949120 348589 326495 340930 -173139
832782291481163008 347999 325888 340909 -173093
832782291499376768 347550 325385 340922 -173059
832782291517590656 347153 325007 340880 -173078
832782291535804416 346801 324678 340877 -173094
832782291554018304 346593 324555 340917 -173094
832782291572232064 346635 324489 340900 -173077
832782291590445952 346716 324615 340929 -173120
832782291608659712 346968 324897 340943 -173051
832782291626873600 347319 325151 340974 -173093
832782291645087360 347609 325461 340930 -173092
832782291663301248 347804 325698 340910 -173114
832782291681515008 348036 325903 340844 -173074
832782291699728896 348180 326087 340908 -173038
832782291717942656 348170 326017 340951 -173033
832782291736156544 348200 326074 340971 -173090
832782291754370304 348255 326150 340923 -173086
832782291772584192 348313 326263 340916 -173106
832782291790797952 348518 326365 340925 -173075
832782291809011712 348766 326607 340906 -173019
832782291827225600 349028 326905 340908 -173051
832782291845439360 349385 327237 340894 -172993
832782291863653248 349645 327488 340901 -173067
832782291881867008 349878 327799 340963 -173044
832782291900080896 349872 327740 340961 -173046
832782291918294656 349696 327539 340939 -173026
832782291936508544 349427 327225 340965 -173042
832782291954722304 348881 326793 340965 -173037
832782291972936192 348324 326175 340878 -173026
832782291991149952 347736 325608 340940 -173063
832782292009363840 347265 325129 340968 -173042
832782292027577600 346824 324725 340923 -173059
832782292045791488 346694 324536 340895 -173070
832782292064005248 346601 324563 340893 -173023
832782292082219110 346719 324616 340940 -173060
832782292100433792 346946 324835 340937 -173044
832782292118648448 347207 325118 340926 -173077
832782292136863104 347517 325383 340964 -173019
832782292155077760 347725 325667 340897 -173070
832782292173292416 347998 325921 340876 -173097
832782292191507072 348072 326010 340893 -173110
832782292209721856 348153 326101 340913 -173082
832782292227936512 348202 326099 340897 -173096
832782292246151168 348293 326147 340889 -173048
832782292264365824 348336 326189 340903 -173052
832782292282580480 348520 326278 340933 -173075
832782292300795136 348681 326517 340878 -173079
832782292319009792 348860 326790 340870 -173085
832782292337224448 349225 327158 340944 -173106
832782292355439104 349594 327408 340891 -173052
832782292373653760 349823 327648 340951 -173082
832782292391868544 349929 327855 340956 -173035
832782292410083200 349823 327675 340892 -173014
832782292428297856 349518 327438 340949 -173012
832782292446512512 349021 326924 340887 -173034
832782292464727168 348539 326436 340911 -173069
832782292482941824 347947 325799 340928 -173093
832782292501156480 347444 325257 340954 -173102
832782292519371136 347063 324855 341013 -173081
832782292537585792 346722 324594 340912 -173087
832782292555800448 346566 324417 340920 -173113
832782292574015232 346632 324489 340934 -173055
832782292592229888 346737 324717 340933 -173075
832782292610444544 347078 324950 340939 -173004
832782292628659200 347392 325248 340914 -173077
832782292646873856 347648 325539 340918 -173098
832782292665088512 347894 325770 340893 -173044
832782292683303168 348141 325977 340974 -173060
832782292701517824 348229 326056 340899 -172999
832782292719732480 348223 326104 340945 -172999
832782292737947136 348231 326138 340918 -173035
832782292756161838 348292 326185 340942 -173059
832782292774375808 348470 326307 340942 -173012
832782292792589824 348556 326432 340947 -173037
832782292810803712 348829 326692 341005 -172962
832782292829017728 349100 327002 340960 -173040
832782292847231616 349444 327249 341011 -173070
832782292865445632 349725 327562 340972 -173020
832782292883659648 349939 327809 340948 -172987
832782292901873536 349894 327690 340929 -173045
832782292920087552 349653 327537 340979 -173010
832782292938301568 349328 327210 340950 -173000
832782292956515456 348829 326736 340952 -173024
832782292974729472 348276 326106 340948 -173059
832782292992943360 347856 325716 340999 -173001
832782293011157376 347333 325136 340955 -172986
832782293029371392 346891 324729 340892 -173039
832782293047585280 346703 324537 340910 -173068
832782293065799296 346625 324450 340918 -173055
832782293084013184 346753 324611 340982 -173034
832782293102227200 347039 324840 340936 -173102
832782293120441216 347216 325102 340923 -173042
832782293138655104 347553 325355 340930 -173074
832782293156869120 347790 325635 340964 -173027
832782293175083136 348040 325865 340917 -173026
832782293193297024 348154 325989 340903 -173038
832782293211511040 348212 326053 340965 -173003
832782293229724928 348175 326094 340963 -173017
832782293247938944 348211 326172 340951 -172985
832782293266152960 348315 326183 340939 -173014
832782293284366848 348480 326324 340995 -173030
832782293302580864 348707 326565 340986 -172979
832782293320794880 349020 326821 340966 -173040
832782293339008768 349358 327140 340990 -173042
832782293357222784 349576 327437 340972 -173063
832782293375436672 349846 327709 341002 -173056
832782293393650688 349867 327787 340916 -173062
832782293411864704 349883 327699 340992 -173013
832782293430078618 349480 327352 340950 -173065
832782293448293120 349047 326965 340913 -173097
832782293466507648 348529 326383 340952 -173091
832782293484722176 347991 325823 340942 -173091
832782293502936704 347550 325408 340994 -173073
832782293521151232 347051 324896 340936 -173132
832782293539365760 346765 324585 340944 -173122
832782293557580288 346649 324495 340969 -173057
832782293575794944 346684 324549 340939 -173087
832782293594009472 346835 324713 340934 -173081
832782293612224000 347079 324957 340939 -173099
832782293630438528 347454 325264 341001 -173060
832782293648653056 347669 325553 340909 -173088
832782293666867584 347877 325729 340866 -173019
832782293685082112 348062 325989 340881 -173004
832782293703296640 348145 326106 340980 -173028
832782293721511168 348187 326083 340949 -173074
832782293739725696 348247 326092 340914 -173067
832782293757940224 348316 326118 340872 -173040
832782293776154752 348406 326244 340944 -172999
832782293794369280 348627 326451 340908 -173044
832782293812583936 348849 326705 340918 -173078
832782293830798464 349157 326952 340919 -173051
832782293849012992 349462 327368 340929 -173033
832782293867227520 349736 327597 340965 -173086
832782293885442048 349961 327839 340986 -173044
832782293903656576 349931 327736 340971 -173105
832782293921871104 349646 327498 340934 -173058
832782293940085632 349281 327119 340956 -173063
832782293958300160 348753 326616 340944 -173071
832782293976514688 348201 326059 340913 -173071
832782293994729216 347656 325442 340902 -173058
832782294012943744 347296 325161 340948 -173081
832782294031158272 346892 324742 340905 -173081
832782294049372800 346662 324464 340915 -173064
832782294067587434 346677 324505 340918 -173064
832782294085801728 346787 324554 340985 -173053
832782294104016000 346973 324810 340946 -173070
832782294122230144 347283 325078 340940 -173077
832782294140444416 347571 325445 340902 -173081
832782294158658688 347872 325713 340965 -173065
832782294176872960 348023 325893 340902 -173111
832782294195087104 348090 326031 340959 -173053
832782294213301376 348174 326082 340969 -173074
832782294231515648 348250 326117 340932 -173082
832782294249729920 348269 326132 340944 -173040
832782294267944064 348326 326244 340945 -173048
832782294286158336 348446 326315 340943 -173087
832782294304372608 348718 326515 340919 -173059
832782294322586880 349013 326858 340999 -173043
832782294340801024 349325 327171 340929 -173029
832782294359015296 349640 327555 340973 -173065
832782294377229568 349886 327765 340942 -173046
832782294395443712 349897 327792 340909 -173036
832782294413657984 349808 327710 340934 -173109
832782294431872256 349512 327346 340934 -173063
832782294450086528 349049 326912 340943 -173041
832782294468300672 348532 326322 340937 -173039
832782294486514944 347916 325763 340912 -173100
832782294504729216 347393 325268 340954 -173078
832782294522943488 346974 324826 340925 -173075
832782294541157632 346774 324604 340994 -173029
832782294559371904 346615 324498 340939 -173050
832782294577586176 346669 324506 340863 -173081
832782294595800448 346837 324723 340835 -173099
832782294614014592 347150 325046 340920 -173018
832782294632228864 347421 325341 340946 -173051
832782294650443136 347691 325656 340956 -173054
832782294668657280 347910 325851 340896 -173045
832782294686871552 348069 325981 340982 -173013
832782294705085824 348225 326092 340950 -173027
832782294723300096 348226 326074 340915 -173020
832782294741514240 348267 326105 340937 -173090
832782294759728512 348274 326145 340903 -173072
832782294777942712 348423 326294 340901 -173039
832782294796156672 348606 326527 340954 -173065
832782294814370688 348798 326726 340871 -173076
832782294832584704 349240 327102 340937 -172994
832782294850798592 349447 327361 340927 -173019
832782294869012608 349774 327646 340983 -173042
832782294887226624 349921 327794 340919 -173059
832782294905440640 349870 327724 340960 -173048
832782294923654656 349671 327484 340906 -173057
832782294941868544 349284 327126 340920 -173063
832782294960082560 348714 326561 340862 -173014
832782294978296576 348161 326020 340964 -173092
832782294996510592 347560 325406 340913 -173071
832782295014724608 347217 325013 340954 -173004
832782295032938496 346823 324658 340929 -173089
832782295051152512 346719 324501 340915 -173076
832782295069366528 346655 324523 340908 -173054
832782295087580544 346805 324674 340937 -173019
832782295105794560 347023 324844 340922 -173076
832782295124008448 347315 325137 340933 -173037
832782295142222464 347621 325442 340995 -173124
832782295160436480 347829 325702 340969 -173035
832782295178650496 348010 325890 340983 -173045
832782295196864512 348152 326016 340948 -173089
832782295215078400 348198 326071 340940 -173044
832782295233292416 348258 326136 341006 -172982
832782295251506432 348274 326142 340944 -173040
832782295269720448 348411 326249 340989 -173037
832782295287934464 348531 326349 340922 -172982
832782295306148352 348783 326559 340915 -173057
832782295324362368 349076 326854 340893 -173040
832782295342576384 349329 327221 340997 -173046
832782295360790400 349607 327518 340955 -173017
832782295379004416 349901 327738 340945 -173007
832782295397218304 349931 327783 341019 -173013
832782295415432320 349812 327707 341000 -173016
832782295433646358 349455 327331 340919 -173053
832782295451860352 349014 326906 340949 -173045
832782295470074368 348440 326284 340953 -173043
832782295488288384 347932 325828 340946 -173036
832782295506502272 347398 325240 340980 -172997
832782295524716288 346972 324844 340940 -173068
832782295542930304 346745 324556 340919 -173058
832782295561144320 346635 324491 340900 -173050
832782295579358336 346720 324551 340971 -173106
832782295597572224 346842 324734 340948 -173074
832782295615786240 347154 325009 340936 -173058
832782295634000256 347461 325377 340949 -173050
832782295652214272 347757 325659 340987 -173078
832782295670428288 347965 325833 341023 -173047
832782295688642176 348095 325962 340961 -173099
832782295706856192 348205 326074 341013 -173006
832782295725070208 348205 326113 340952 -173035
832782295743284224 348255 326075 340906 -173090
832782295761498240 348313 326156 340930 -173059
832782295779712128 348413 326292 340942 -173046
832782295797926144 348571 326423 340910 -173087
832782295816140160 348918 326778 340998 -173022
832782295834354176 349226 327097 340914 -173013
832782295852568192 349534 327432 340970 -173009
832782295870782080 349753 327644 340893 -173050
832782295888996096 349968 327772 340922 -173048
832782295907210112 349826 327707 340898 -173050
832782295925424128 349590 327468 340883 -173039
832782295943638144 349150 326966 340901 -173013
832782295961852032 348633 326527 340949 -173009
832782295980066048 348070 325966 340940 -173022
832782295998280064 347618 325503 340899 -173052
832782296016494080 347138 325029 340910 -173089
832782296034708096 346806 324670 340917 -173007
832782296052921984 346593 324525 340888 -173094
832782296071136000 346676 324513 340896 -173071
832782296089350004 346761 324645 340944 -173074
832782296107563136 347048 324873 340965 -173088
832782296125776256 347322 325136 340927 -173033
832782296143989376 347622 325473 340990 -173039
832782296162202624 347873 325767 340989 -172989
832782296180415744 348030 325912 340953 -173046
832782296198628864 348179 326042 340913 -173044
832782296216841984 348205 326090 340912 -173068
832782296235055104 348218 326092 340896 -173055
832782296253268224 348274 326194 341008 -173064
832782296271481472 348363 326243 340933 -173062
832782296289694592 348521 326354 340914 -173093
832782296307907712 348734 326596 340948 -173068
832782296326120832 349053 326873 340995 -173050
832782296344333952 349369 327205 340951 -173043
832782296362547072 349683 327500 340878 -173102
832782296380760320 349856 327697 340912 -173087
832782296398973440 349794 327736 340920 -173113
832782296417186560 349727 327614 340930 -173029
832782296435399680 349343 327177 340858 -173105
832782296453612800 348862 326759 340927 -173061
832782296471826048 348325 326245 340959 -172991
832782296490039168 347774 325618 340934 -173055
832782296508252288 347317 325165 340981 -173047
832782296526465408 346984 324807 340929 -173024
832782296544678528 346662 324522 340908 -173036
832782296562891648 346608 324450 340885 -173098
832782296581104896 346685 324562 340895 -173153
832782296599318016 346881 324787 340937 -173031
832782296617531136 347141 325055 340878 -173018
832782296635744256 347517 325425 340905 -173043
832782296653957376 347786 325627 340930 -173016
832782296672170496 348024 325863 340957 -173058
832782296690383744 348115 325949 340945 -173080
832782296708596864 348136 326038 340946 -173063
832782296726809984 348150 326072 340932 -173060
832782296745023104 348231 326072 340940 -173099
832782296763236274 348298 326147 340939 -173095
832782296781449344 348431 326304 340911 -173072
832782296799662464 348596 326494 340897 -173115
832782296817875584 348856 326720 340876 -173087
832782296836088832 349204 327006 340916 -173104
832782296854301952 349534 327307 340882 -173109
832782296872515072 349883 327677 340947 -173068
832782296890728192 349932 327737 340992 -173080
832782296908941312 349832 327644 340935 -173146
832782296927154432 349538 327398 340948 -173102
832782296945367680 349178 327012 340989 -173079
832782296963580800 348664 326432 340996 -173041
832782296981793920 348031 325882 340951 -173043
832782297000007040 347506 325394 340969 -173025
832782297018220160 347163 325007 340922 -173054
832782297036433280 346812 324665 340932 -173050
832782297054646528 346600 324472 340960 -173042
832782297072859648 346608 324471 340850 -173063
832782297091072768 346793 324616 340835 -173125
832782297109285888 347022 324846 340841 -173110
832782297127499008 347382 325186 340932 -173082
832782297145712128 347666 325497 340940 -173077
832782297163925376 347933 325759 340943 -173091
832782297182138496 348126 325918 340877 -173064
832782297200351616 348215 326023 340933 -173021
832782297218564736 348234 326087 340884 -173082
832782297236777856 348263 326126 340934 -173062
832782297254991104 348285 326128 340828 -173077
832782297273204224 348419 326211 340909 -173045
832782297291417344 348522 326434 340896 -173089
832782297309630464 348724 326633 340921 -173107
832782297327843584 349064 326947 340940 -173125
832782297346056704 349388 327289 340899 -173110
832782297364269952 349687 327594 340964 -173089
832782297382483072 349912 327780 340885 -173091
832782297400696192 349934 327798 340922 -173102
832782297418909394 349653 327573 340874 -173111
832782297437122560 349314 327169 340842 -173097
832782297455335680 348825 326735 340903 -173040
832782297473548800 348249 326133 340920 -173052
832782297491762048 347729 325608 340938 -173035
832782297509975168 347259 325084 340916 -173040
832782297528188288 346979 324805 340910 -173067
832782297546401408 346765 324513 340904 -173055
832782297564614528 346672 324453 340974 -173050
832782297582827648 346683 324542 340899 -173004
832782297601040896 346945 324808 340964 -173011
832782297619254016 347256 325058 340932 -173046
832782297637467136 347564 325428 340916 -173060
832782297655680256 347767 325627 340921 -173077
832782297673893376 348013 325815 340937 -173075
832782297692106496 348207 326004 340955 -173035
832782297710319744 348166 326047 340923 -173024
832782297728532864 348216 326061 340931 -173041
832782297746745984 348258 326050 340909 -173060
832782297764959104 348351 326152 340891 -173075
832782297783172224 348474 326322 340936 -173029
832782297801385472 348677 326446 340875 -173069
832782297819598592 348937 326755 340884 -173038
832782297837811712 349248 327168 340883 -173090
832782297856024832 349579 327470 340916 -173042
832782297874237952 349868 327694 340911 -173068
832782297892451072 349986 327863 340980 -173019
832782297910664320 349839 327695 340869 -173119
832782297928877440 349546 327378 340851 -173107
832782297947090560 349121 326971 340878 -173064
832782297965303680 348524 326447 340897 -173046
832782297983516800 348149 325973 340912 -173071
832782298001729920 347472 325322 340868 -173037
832782298019943168 347062 324905 340942 -173065
832782298038156288 346790 324646 340929 -173048
832782298056369380 346619 324498 340943 -173004
832782298074582528 346647 324551 340991 -173022
832782298092795648 346848 324722 340967 -173006
832782298111008768 347112 324933 340929 -173071
832782298129222016 347445 325226 340923 -173095
832782298147435136 347651 325505 340874 -173075
832782298165648256 347913 325740 340928 -173060
832782298183861376 348120 325929 340978 -173047
832782298202074496 348123 325986 340897 -173102
832782298220287616 348186 326039 340874 -173053
832782298238500864 348243 326134 340916 -173011
832782298256713984 348254 326206 340934 -173038
832782298274927104 348391 326261 340860 -173000
832782298293140224 348492 326436 340862 -173040
832782298311353344 348802 326647 340888 -173035
832782298329566464 349127 326996 340916 -173007
832782298347779712 349392 327252 340883 -173041
832782298365992832 349735 327607 340883 -173080
832782298384205952 349898 327698 340862 -173105
832782298402419072 349921 327734 340895 -173077
832782298420632192 349690 327529 340905 -173028
832782298438845440 349290 327179 340934 -173079
832782298457058560 348775 326639 340892 -173050
832782298475271680 348187 325991 340841 -173056
832782298493484800 347790 325652 340903 -173093
832782298511697920 347229 325081 340964 -173078
832782298529911040 346791 324706 340910 -173104
832782298548124288 346721 324539 340901 -173057
832782298566337408 346612 324499 340905 -173105
832782298584550528 346656 324570 340954 -173050
832782298602763648 346882 324804 340920 -173060
832782298620976768 347153 325105 340926 -173104
832782298639189888 347508 325393 340936 -173031
832782298657403136 347810 325678 340963 -173040
832782298675616256 347962 325821 340908 -173090
832782298693829376 348182 325969 340919 -173052
832782298712042496 348111 326035 340901 -173090
832782298730255616 348218 326067 340942 -173102
832782298748468736 348241 326041 340843 -173119
832782298766681934 348354 326222 340932 -173048
832782298784894848 348477 326367 340974 -173108
832782298803107712 348692 326549 340932 -173085
832782298821320576 348947 326796 340900 -173065
832782298839533568 349214 327181 340944 -173087
832782298857746432 349569 327454 340934 -173100
832782298875959296 349841 327659 340961 -173093
832782298894172160 349898 327721 340972 -173035
832782298912385024 349806 327611 340974 -173103
832782298930598016 349448 327293 340914 -173069
832782298948810880 348946 326849 340865 -173137
832782298967023744 348486 326308 340926 -173089
832782298985236608 347932 325750 340933 -173050
832782299003449472 347517 325370 340919 -173057
832782299021662336 347079 324933 340928 -173090
832782299039875328 346729 324597 340906 -173093
832782299058088192 346631 324487 340844 -173074
832782299076301056 346676 324545 340881 -173028
832782299094513920 346827 324684 340876 -173079
832782299112726784 347109 324955 340902 -173018
832782299130939776 347397 325273 340899 -173053
832782299149152640 347619 325553 340882 -173085
832782299167365504 347953 325792 340925 -173074
832782299185578368 348071 326001 340955 -173042
832782299203791232 348174 326060 340932 -173045
832782299222004224 348178 326069 340900 -173053
832782299240217088 348240 326117 340927 -173034
832782299258429952 348292 326189 340935 -173029
832782299276642816 348331 326254 340912 -173076
832782299294855680 348521 326426 340911 -173092
832782299313068544 348789 326684 340948 -173059
832782299331281536 349138 327041 340932 -173087
832782299349494400 349391 327348 340921 -173089
832782299367707264 349710 327648 340972 -173058
832782299385920128 349917 327879 340949 -173022
832782299404132992 349904 327798 340909 -173071
832782299422345906 349649 327523 340897 -173053
832782299440557440 349238 327059 340930 -173035
832782299458769024 348725 326593 340899 -173068
832782299476980736 348192 326089 340881 -173094
832782299495192320 347653 325558 340928 -173031
832782299513403904 347271 325156 340897 -173090
832782299531615488 346917 324798 340956 -173016
832782299549827200 346700 324520 340877 -173064
832782299568038784 346677 324564 340931 -173012
832782299586250368 346721 324612 340931 -173047
832782299604461952 346993 324841 341043 -173002
832782299622673664 347198 325129 340998 -173061
832782299640885248 347523 325325 340921 -173109
832782299659096832 347839 325659 340969 -173067
832782299677308416 348042 325914 340892 -173067
832782299695520128 348128 326004 340926 -173077
832782299713731712 348209 326084 340948 -173041
832782299731943296 348257 326081 340933 -173071
832782299750154880 348259 326076 340902 -173078
832782299768366592 348313 326173 340926 -173031
832782299786578176 348426 326335 340883 -173039
832782299804789760 348730 326547 340930 -173050
832782299823001344 348955 326889 340919 -173107
832782299841213056 349244 327173 340885 -173044
832782299859424640 349610 327458 340894 -173039
832782299877636224 349889 327687 340887 -173046
832782299895847808 349931 327761 340886 -173060
832782299914059520 349825 327660 340950 -173057
832782299932271104 349435 327348 340940 -173079
832782299950482688 348919 326809 340886 -173109
832782299968694272 348414 326267 340893 -173087
832782299986905984 347899 325782 340952 -173041
832782300005117568 347361 325204 340908 -173120
832782300023329152 346971 324809 340906 -173093
832782300041540870 346667 324564 340833 -173117
832782300059754752 346607 324533 340906 -173069
832782300077968640 346651 324562 340968 -173035
832782300096182656 346820 324733 340877 -173094
832782300114396544 347138 325046 340959 -173041
832782300132610560 347468 325336 340980 -173009
832782300150824448 347706 325549 340931 -173106
832782300169038464 347877 325738 340919 -173074
832782300187252352 348092 326033 340989 -173072
832782300205466368 348120 326058 340883 -173079
832782300223680256 348156 326054 340915 -173096
832782300241894144 348214 326086 340877 -173047
832782300260108160 348290 326151 340939 -173023
832782300278322048 348384 326293 340898 -173033
832782300296536064 348589 326430 340906 -173037
832782300314749952 348865 326723 340955 -172994
832782300332963968 349195 327029 340871 -173035
832782300351177856 349468 327288 340903 -173059
832782300369391872 349775 327595 340917 -173033
832782300387605760 349913 327811 340981 -173008
832782300405819776 349891 327728 340940 -173012
832782300424033664 349633 327568 340971 -172994
832782300442247552 349245 327111 340903 -173024
832782300460461568 348721 326603 340956 -173021
832782300478675456 348188 325993 340931 -173069
832782300496889472 347627 325471 340902 -173051
832782300515103360 347181 324979 340917 -173030
832782300533317376 346826 324663 341001 -173050
832782300551531264 346603 324524 340959 -173056
832782300569745280 346669 324582 341001 -173033
832782300587959168 346771 324651 340954 -173037
832782300606173056 347004 324896 340934 -173020
832782300624387072 347305 325146 340927 -172973
832782300642600960 347569 325464 340898 -173021
832782300660814976 347825 325692 340957 -173007
832782300679028864 347998 325878 340901 -173068
832782300697242880 348180 326036 340960 -173063
832782300715456768 348195 326064 340944 -173097
832782300733670792 348198 326069 340925 -173074
832782300751883776 348201 326124 340910 -173100
832782300770096768 348322 326178 340896 -173045
832782300788309632 348497 326347 340932 -173056
832782300806522624 348727 326556 340932 -173052
832782300824735488 348992 326874 340904 -173063
832782300842948480 349326 327200 340947 -173075
832782300861161344 349647 327545 340982 -173065
832782300879374336 349809 327756 340898 -173102
832782300897587328 349928 327822 340994 -173055
832782300915800192 349734 327629 340956 -173057
832782300934013184 349392 327252 340884 -173087
832782300952226048 348936 326787 340903 -173086
832782300970439040 348350 326224 340965 -173024
832782300988651904 347915 325778 340897 -173044
832782301006864896 347318 325247 340930 -173033
832782301025077760 346957 324838 340952 -173069
832782301043290752 346745 324559 340934 -173052
832782301061503744 346660 324525 341038 -172982
832782301079716608 346669 324582 340952 -173012
832782301097929600 346902 324798 340921 -173029
832782301116142464 347185 325036 340933 -173037
832782301134355456 347418 325323 340880 -173037
832782301152568320 347763 325614 340965 -173024
832782301170781312 347949 325814 340902 -173035
832782301188994304 348070 325979 340933 -173089
832782301207207168 348134 326060 340940 -173106
832782301225420160 348168 326062 340917 -173041
832782301243633024 348192 326053 340906 -173089
832782301261846016 348289 326101 340909 -173039
832782301280058880 348389 326202 340926 -173076
832782301298271872 348622 326479 340953 -173027
832782301316484864 348861 326747 340862 -173044
832782301334697728 349176 327097 340904 -173063
832782301352910720 349474 327361 340911 -173092
832782301371123584 349819 327646 340966 -173075
832782301389336576 349936 327737 340964 -173108
832782301407549434 349837 327665 340864 -173099
832782301425762432 349555 327400 340903 -173092
832782301443975424 349203 327039 340972 -173033
832782301462188416 348664 326481 340938 -173019
832782301480401536 348042 325911 340880 -173000
832782301498614528 347662 325549 340903 -173027
832782301516827520 347168 325083 340919 -173022
832782301535040512 346817 324745 340903 -173000
832782301553253504 346624 324577 340910 -173006
832782301571466624 346680 324583 340928 -172988
832782301589679616 346809 324678 340884 -173037
832782301607892608 347046 324923 340950 -173009
832782301626105600 347330 325235 340926 -173016
832782301644318720 347614 325458 340882 -173060
832782301662531712 347890 325717 340937 -172985
832782301680744704 348131 325911 340973 -173013
832782301698957696 348150 326001 340909 -173045
832782301717170688 348158 326014 340898 -173067
832782301735383808 348292 326066 340921 -172985
832782301753596800 348246 326070 340881 -173073
832782301771809792 348387 326194 340921 -172995
832782301790022784 348557 326377 340945 -173048
832782301808235776 348768 326568 340912 -173105
832782301826448896 349053 326942 340851 -173011
832782301844661888 349405 327237 340945 -173033
832782301862874880 349731 327527 340949 -173053
832782301881087872 349937 327788 340901 -173033
832782301899300864 349925 327795 340928 -173079
832782301917513984 349760 327647 340954 -173113
832782301935726976 349315 327213 340902 -173095
832782301953939968 348815 326775 340893 -173055
832782301972152960 348254 326162 340914 -173075
832782301990365952 347743 325640 340913 -173054
832782302008579072 347335 325203 340898 -173074
832782302026792064 346919 324802 340926 -173035
832782302045005056 346649 324550 340866 -173024
832782302063218048 346643 324500 340904 -173020
832782302081431126 346754 324617 340927 -173038
832782302099644672 346967 324820 340920 -173026
832782302117858176 347242 325060 340922 -172979
832782302136071552 347498 325319 340917 -173034
832782302154285056 347734 325600 340847 -173082
832782302172498560 347976 325801 340891 -173054
832782302190711936 348085 326004 340910 -173056
832782302208925440 348168 326044 340871 -173075
832782302227138944 348166 326127 340891 -173092
832782302245352320 348213 326150 340919 -173041
832782302263565824 348333 326120 340876 -173041
832782302281779328 348390 326294 340897 -172976
832782302299992832 348648 326448 340927 -173026
832782302318206208 348906 326705 340908 -173074
832782302336419712 349238 327064 340928 -173064
832782302354633216 349522 327385 340918 -173079
832782302372846592 349794 327652 340917 -173074
832782302391060096 349938 327748 340905 -173086
832782302409273600 349833 327758 340904 -173093
832782302427486976 349537 327435 340954 -173054
832782302445700480 349100 327022 340920 -173081
832782302463913984 348595 326513 340914 -173089
832782302482127360 348048 325886 340905 -173064
832782302500340864 347496 325353 340874 -173078
832782302518554368 347053 324926 340931 -173082
832782302536767744 346714 324586 340911 -173070
832782302554981248 346680 324503 340942 -172956
832782302573194752 346642 324532 340912 -173046
832782302591408128 346881 324693 340973 -172972
832782302609621632 347114 324958 340945 -173022
832782302627835136 347415 325262 340932 -173024
832782302646048640 347625 325532 340916 -173089
832782302664262016 347931 325781 340919 -173029
832782302682475520 348137 325912 340878 -173064
832782302700689024 348215 326064 340906 -173029
832782302718902400 348248 326083 340904 -173042
832782302737115904 348285 326118 340920 -173012
832782302755329408 348288 326174 340904 -173047
832782302773542744 348371 326256 340898 -173031
832782302791756160 348528 326431 340972 -173009
832782302809969536 348805 326617 340972 -172987
832782302828182912 349042 326914 340954 -173006
832782302846396288 349444 327323 340981 -172976
832782302864609664 349725 327608 340945 -173031
832782302882822912 349872 327765 340933 -173076
832782302901036288 349935 327785 340959 -173013
832782302919249664 349689 327589 340929 -173045
832782302937463040 349344 327202 340933 -173126
832782302955676416 348806 326649 340918 -173076
832782302973889792 348228 326094 340875 -173092
832782302992103168 347716 325594 340904 -173010
832782303010316544 347223 325091 340898 -173059
832782303028529792 346922 324729 340940 -173031
832782303046743168 346675 324537 340925 -173077
832782303064956544 346631 324542 340944 -173045
832782303083169920 346698 324580 340879 -173036
832782303101383296 346925 324872 340923 -173096
832782303119596672 347221 325074 340905 -173046
832782303137810048 347523 325411 340909 -173028
832782303156023424 347798 325615 340945 -173054
832782303174236672 347958 325793 340866 -173057
832782303192450048 348106 325927 340950 -173100
832782303210663424 348189 326030 340896 -173053
832782303228876800 348267 326066 340919 -173036
832782303247090176 348279 326140 340984 -173035
832782303265303552 348254 326173 340942 -173045
832782303283516928 348438 326324 340940 -173034
832782303301730304 348642 326514 340933 -173030
832782303319943552 348947 326793 340911 -173059
832782303338156928 349279 327175 340897 -173077
832782303356370304 349543 327409 340949 -173056
832782303374583680 349773 327676 340900 -173098
832782303392797056 349855 327801 340913 -173125
832782303411010360 349847 327688 340914 -173037
832782303429223168 349536 327414 340936 -173029
832782303447436032 348985 326893 340842 -173085
832782303465649024 348494 326349 340893 -173125
832782303483861888 347904 325816 340864 -173106
832782303502074880 347395 325318 340916 -173103
832782303520287744 346938 324911 340871 -173088
832782303538500736 346694 324677 340897 -173057
832782303556713600 346566 324506 340886 -173090
832782303574926592 346624 324521 340923 -173036
832782303593139456 346721 324727 340909 -173053
832782303611352448 347041 324927 340938 -173078
832782303629565312 347343 325264 340927 -172986
832782303647778304 347675 325526 340933 -172994
832782303665991168 347938 325783 340857 -173027
832782303684204160 348103 325993 340916 -172990
832782303702417024 348157 326035 340911 -173074
832782303720630016 348221 326018 340949 -173087
832782303738842880 348195 326103 340943 -173041
832782303757055872 348263 326115 340909 -173050
832782303775268736 348442 326245 340883 -173037
832782303793481600 348574 326386 340888 -172985
832782303811694592 348799 326655 340900 -173068
832782303829907456 349119 326912 340919 -173052
832782303848120448 349454 327269 340913 -173037
832782303866333312 349717 327562 340900 -173044
832782303884546304 349942 327767 340960 -173051
832782303902759168 349898 327822 340913 -173054
832782303920972160 349649 327566 340900 -173088
832782303939185024 349227 327154 340895 -173090
832782303957398016 348724 326651 340929 -173097
832782303975610880 348174 326005 340914 -173070
832782303993823872 347729 325676 340947 -173112
832782304012036736 347176 325171 340903 -173064
832782304030249728 346832 324730 340911 -173076
832782304048462716 346638 324559 340879 -173104
832782304066675072 346631 324504 340859 -173051
832782304084887424 346701 324539 340887 -173097
832782304103099776 346889 324786 340901 -173094
832782304121312128 347192 325099 340900 -173105
832782304139524480 347509 325359 340819 -173105
832782304157736704 347814 325654 340878 -173071
832782304175949056 348032 325840 340899 -173089
832782304194161408 348194 326022 340865 -173025
832782304212373760 348179 326036 340851 -173060
832782304230586112 348226 326082 340898 -173046
832782304248798464 348255 326141 340948 -173064
832782304267010816 348325 326183 340929 -173019
832782304285223168 348498 326354 340938 -173027
832782304303435520 348702 326540 340913 -173012
832782304321647872 348934 326796 340902 -173094
832782304339860096 349270 327151 340932 -173062
832782304358072448 349548 327403 340916 -173096
832782304376284800 349869 327732 340882 -173107
832782304394497152 349968 327833 340936 -173074
832782304412709504 349846 327659 340937 -173040
832782304430921856 349550 327373 340962 -173050
832782304449134208 349039 326941 340928 -173046
832782304467346560 348514 326337 340895 -173069
832782304485558912 347932 325821 340892 -173073
832782304503771264 347338 325285 340844 -173122
832782304521983488 346914 324878 340891 -173100
832782304540195840 346661 324552 340917 -173091
832782304558408192 346600 324393 340923 -173009
832782304576620544 346679 324466 340906 -173075
832782304594832896 346872 324654 340912 -173057
832782304613045248 347121 324934 340853 -173112
832782304631257600 347433 325264 340875 -173046
832782304649469952 347691 325533 340899 -173105
832782304667682304 347898 325718 340800 -173127
832782304685894656 348068 325959 340929 -173095
832782304704106880 348169 326039 340838 -173080
832782304722319232 348168 326053 340891 -173137
832782304740531602 348199 326054 340847 -173154
832782304758745600 348237 326129 340900 -173104
832782304776959616 348363 326243 340922 -173086
832782304795173632 348559 326410 340886 -173088
832782304813387520 348844 326673 340871 -173029
832782304831601536 349095 326979 340835 -173069
832782304849815552 349379 327286 340833 -173087
832782304868029568 349693 327541 340828 -173090
832782304886243584 349852 327772 340845 -173093
832782304904457472 349815 327672 340851 -173154
832782304922671488 349612 327508 340850 -173125
832782304940885504 349170 327082 340858 -173107
832782304959099520 348609 326535 340867 -173111
832782304977313536 348067 325948 340876 -173088
832782304995527424 347568 325454 340899 -173090
832782305013741440 347119 324969 340899 -173075
832782305031955456 346778 324677 340896 -173097
832782305050169472 346597 324464 340857 -173035
832782305068383488 346587 324447 340911 -173040
832782305086597376 346720 324605 340862 -173056
832782305104811392 346998 324789 340895 -173063
832782305123025408 347275 325165 340894 -173050
832782305141239424 347563 325434 340819 -173098
832782305159453440 347871 325702 340883 -173098
832782305177667328 348084 325860 340925 -173061
832782305195881344 348149 325981 340882 -173042
832782305214095360 348203 326037 340917 -173045
832782305232309376 348276 326070 340967 -173044
832782305250523392 348286 326127 340918 -173048
832782305268737280 348314 326174 340948 -173104
832782305286951296 348567 326335 340934 -173053
832782305305165312 348750 326579 340932 -173108
832782305323379328 348987 326835 340880 -173138
832782305341593344 349335 327198 340894 -173054
832782305359807232 349604 327518 340897 -173082
832782305378021248 349855 327761 340900 -173115
832782305396235248 349893 327829 340900 -173088
832782305414448384 349772 327628 340843 -173086
832782305432661504 349444 327383 340852 -173044
832782305450874624 348891 326875 340858 -173086
832782305469087872 348358 326306 340860 -173119
832782305487300992 347814 325709 340885 -173095
832782305505514112 347376 325229 340893 -173047
832782305523727232 346940 324789 340854 -173052
832782305541940352 346689 324500 340866 -173074
832782305560153472 346653 324452 340868 -173043
832782305578366720 346663 324479 340848 -173063
832782305596579840 346843 324677 340911 -173075
832782305614792960 347136 324977 340872 -173052
832782305633006080 347450 325292 340893 -173058
832782305651219200 347700 325614 340837 -173022
832782305669432320 347874 325707 340821 -173125
832782305687645568 348051 326011 340842 -173104
832782305705858688 348155 326038 340899 -173063
832782305724071808 348219 326084 340892 -173047
832782305742284928 348200 326087 340853 -173051
832782305760498048 348260 326159 340888 -173036
832782305778711296 348396 326265 340880 -173071
832782305796924416 348582 326419 340916 -173017
832782305815137536 348826 326704 340868 -173014
832782305833350656 349127 327007 340863 -173093
832782305851563776 349469 327358 340909 -173111
832782305869776896 349778 327665 340952 -173114
832782305887990144 349968 327789 340939 -173098
832782305906203264 349907 327760 340943 -173055
832782305924416384 349576 327447 340857 -173086
832782305942629504 349150 327042 340908 -173030
832782305960842624 348621 326529 340927 -173079
832782305979055744 348107 326013 340926 -173059
832782305997268992 347536 325420 340845 -173074
832782306015482112 347093 325006 340905 -173103
832782306033695232 346807 324680 340885 -173085
832782306051908352 346633 324507 340880 -173086
832782306070121518 346609 324451 340850 -173081
832782306088334592 346761 324629 340912 -173011
832782306106547712 347015 324854 340905 -173047
832782306124760832 347258 325084 340857 -173139
832782306142974080 347585 325462 340884 -173063
832782306161187200 347789 325754 340893 -173052
832782306179400320 347935 325856 340884 -173190
832782306197613440 348099 325959 340872 -173056
832782306215826560 348164 326064 340877 -173047
832782306234039680 348257 326027 340862 -173099
832782306252252928 348255 326113 340872 -173099
832782306270466048 348335 326158 340861 -173086
832782306288679168 348436 326328 340842 -173113
832782306306892288 348729 326617 340960 -173056
832782306325105408 349004 326905 340870 -173030
832782306343318528 349376 327197 340903 -172990
832782306361531776 349628 327495 340881 -173024
832782306379744896 349869 327726 340935 -173038
832782306397958016 349862 327719 340911 -173059
832782306416171136 349758 327582 340895 -173031
832782306434384256 349431 327203 340889 -173059
832782306452597504 348997 326808 340898 -173076
832782306470810624 348372 326280 340904 -173141
832782306489023744 347826 325695 340879 -173091
832782306507236864 347287 325189 340881 -173092
832782306525449984 346917 324742 340919 -173104
832782306543663104 346698 324568 340913 -173093
832782306561876352 346602 324474 340877 -173050
832782306580089472 346643 324576 340880 -173046
832782306598302592 346857 324748 340882 -173089
832782306616515712 347131 325064 340878 -173124
832782306634728832 347464 325321 340937 -173071
832782306652941952 347736 325620 340877 -173097
832782306671155200 347973 325857 340914 -173043
832782306689368320 348092 325976 340920 -173094
832782306707581440 348164 326091 340908 -173121
832782306725794560 348229 326089 340885 -173038
832782306744007680 348194 326105 340876 -173073
832782306762220800 348268 326158 340954 -173038
832782306780434072 348427 326331 340961 -173009
832782306798646400 348600 326539 340895 -173036
832782306816858752 348850 326712 340901 -173076
832782306835070976 349223 327081 340894 -173077
832782306853283328 349534 327366 340877 -173107
832782306871495552 349803 327668 340862 -173045
832782306889707904 349903 327726 340854 -173027
832782306907920128 349853 327708 340911 -173115
832782306926132480 349574 327433 340922 -173056
832782306944344704 349132 327013 340846 -173106
832782306962557056 348631 326531 340948 -173061
832782306980769408 348012 325894 340885 -173081
832782306998981632 347534 325428 340891 -173048
832782307017193984 347092 324927 340844 -173081
832782307035406208 346830 324654 340933 -173021
832782307053618560 346651 324471 340931 -173103
832782307071830784 346636 324441 340893 -173090
832782307090043136 346818 324585 340875 -173122
832782307108255360 347010 324813 340836 -173053
832782307126467712 347269 325144 340849 -173076
832782307144679936 347584 325416 340868 -173097
832782307162892288 347814 325680 340884 -173100
832782307181104640 348033 325910 340903 -173044
832782307199316864 348133 325997 340895 -173095
832782307217529216 348216 326070 340897 -173067
832782307235741440 348237 326096 340934 -173047
832782307253953792 348330 326167 340966 -173050
832782307272166016 348314 326159 340848 -173107
832782307290378368 348545 326349 340979 -173034
832782307308590592 348754 326655 340944 -173091
832782307326802944 349055 326876 340926 -173082
832782307345015296 349381 327237 340883 -173078
832782307363227520 349637 327494 340911 -173128
832782307381439872 349795 327747 340884 -173097
832782307399652096 349876 327812 340905 -173076
832782307417864448 349722 327624 340887 -173072
832782307436076682 349321 327210 340869 -173060
832782307454289792 348869 326713 340857 -173068
832782307472502912 348328 326151 340842 -173067
832782307490716032 347792 325645 340889 -173058
832782307508929280 347198 325120 340828 -173140
832782307527142400 346858 324765 340849 -173077
832782307545355520 346655 324518 340813 -173046
832782307563568640 346582 324471 340826 -173046
832782307581781760 346655 324538 340829 -173063
832782307599994880 346839 324704 340806 -173103
832782307618208128 347148 324991 340859 -173062
832782307636421248 347483 325292 340861 -173090
832782307654634368 347810 325573 340875 -173053
832782307672847488 347997 325769 340891 -173082
832782307691060608 348119 325880 340847 -173092
832782307709273728 348203 326017 340903 -173085
832782307727486976 348245 326034 340888 -173033
832782307745700096 348219 326044 340868 -173076
832782307763913216 348287 326079 340944 -173114
832782307782126336 348384 326261 340879 -173100
832782307800339456 348603 326420 340898 -173096
832782307818552704 348881 326738 340867 -173074
832782307836765824 349216 327025 340919 -173062
832782307854978944 349571 327388 340960 -173079
832782307873192064 349878 327632 340937 -173058
832782307891405184 349949 327755 340888 -173087
832782307909618304 349759 327669 340827 -173142
832782307927831552 349482 327312 340810 -173123
832782307946044672 349067 326922 340885 -173050
832782307964257792 348518 326401 340923 -173120
832782307982470912 347968 325849 340939 -173069
832782308000684032 347418 325274 340854 -173145
832782308018897152 347001 324866 340896 -173110
832782308037110400 346795 324677 340952 -173131
832782308055323526 346520 324392 340852 -173157
832782308073536640 346557 324458 340870 -173126
832782308091749760 346696 324648 340884 -173087
832782308109962880 346995 324837 340889 -173096
832782308128176128 347274 325139 340858 -173078
832782308146389248 347572 325438 340803 -173062
832782308164602368 347872 325677 340837 -173088
832782308182815488 348035 325898 340878 -173106
832782308201028608 348188 325962 340836 -173041
832782308219241728 348147 325987 340799 -173119
832782308237454976 348181 326070 340855 -173075
832782308255668096 348230 326110 340824 -173045
832782308273881216 348311 326137 340813 -173079
832782308292094336 348480 326350 340879 -173087
832782308310307456 348805 326636 340970 -173043
832782308328520576 349105 326918 340870 -173090
832782308346733824 349396 327264 340927 -173108
832782308364946944 349717 327536 340908 -173013
832782308383160064 349844 327749 340861 -173105
832782308401373184 349896 327779 340909 -173065
832782308419586304 349706 327588 340882 -173096
832782308437799424 349301 327157 340870 -173078
832782308456012672 348834 326715 340917 -173061
832782308474225792 348219 326140 340871 -173081
832782308492438912 347699 325556 340940 -173075
832782308510652032 347126 325079 340846 -173105
832782308528865152 346825 324675 340850 -173108
832782308547078400 346729 324535 340881 -173092
832782308565291520 346643 324494 340912 -173068
832782308583504640 346736 324569 340861 -173060
832782308601717760 346887 324784 340863 -173089
832782308619930880 347207 325029 340843 -173093
832782308638144000 347485 325284 340826 -173064
832782308656357248 347764 325617 340828 -173087
832782308674570368 348037 325893 340888 -173062
832782308692783488 348116 325968 340845 -173040
832782308710996608 348205 326076 340817 -173070
832782308729209728 348202 326104 340834 -173100
832782308747422930 348183 326062 340828 -173090
832782308765636096 348286 326125 340752 -173071
832782308783849216 348473 326276 340826 -173086
832782308802062336 348630 326493 340887 -173062
832782308820275584 348899 326767 340869 -173026
832782308838488704 349222 327071 340833 -173068
832782308856701824 349588 327412 340878 -173067
832782308874914944 349788 327646 340867 -173069
832782308893128064 349946 327814 340933 -173058
832782308911341184 349783 327665 340850 -173088
832782308929554432 349455 327289 340825 -173125
832782308947767552 349045 326813 340870 -173137
832782308965980672 348473 326320 340836 -173136
832782308984193792 347885 325716 340887 -173105
832782309002406912 347400 325255 340884 -173100
832782309020620032 346965 324857 340881 -173074
832782309038833280 346736 324576 340857 -173057
832782309057046400 346593 324434 340895 -173082
832782309075259520 346677 324526 340902 -173104
832782309093472640 346755 324695 340870 -173129
832782309111685760 347057 324938 340928 -173095
832782309129899008 347418 325266 340911 -173035
832782309148112128 347678 325489 340882 -173086
832782309166325248 347850 325715 340886 -173064
832782309184538368 348083 325932 340950 -173112
832782309202751488 348152 326022 340885 -173080
832782309220964608 348224 326084 340959 -173080
832782309239177856 348294 326083 340935 -173063
832782309257390976 348274 326122 340894 -173102
832782309275604096 348308 326126 340913 -173068
832782309293817216 348536 326392 340903 -173064
832782309312030336 348799 326691 340882 -173062
832782309330243456 349042 326958 340820 -173089
832782309348456704 349412 327282 340836 -173074
832782309366669824 349689 327568 340866 -173107
832782309384882944 349924 327751 340867 -173100
832782309403096058 349838 327842 340876 -173112
832782309421309184 349664 327549 340891 -173078
832782309439522304 349267 327149 340925 -173079
832782309457735424 348727 326661 340914 -173098
832782309475948672 348225 326075 340894 -173105
832782309494161792 347668 325575 340927 -173050
832782309512374912 347160 325072 340885 -173082
832782309530588032 346807 324706 340942 -173076
832782309548801152 346595 324437 340879 -173067
832782309567014272 346563 324496 340884 -173061
832782309585227520 346759 324571 340917 -173007
832782309603440640 346936 324854 340933 -173054
832782309621653760 347231 325125 340894 -173036
832782309639866880 347512 325374 340861 -173030
832782309658080000 347815 325601 340910 -173056
832782309676293120 347966 325839 340912 -173052
832782309694506368 348102 325945 340872 -173148
832782309712719488 348212 326023 340901 -173077
832782309730932608 348208 326048 340899 -173050
832782309749145728 348252 326116 340896 -173078
832782309767358848 348302 326136 340885 -173102
832782309785572096 348438 326306 340911 -173097
832782309803785216 348633 326518 340857 -173087
832782309821998336 348946 326749 340876 -173100
832782309840211456 349224 327090 340874 -173086
832782309858424576 349561 327444 340833 -173027
