TIMESTAMP PPG0 PPG1 PPG2 AMBIENT
832781823971518208 345278 310347 335025 -173075
832781823989699968 345317 310371 334999 -173043
832781824007881856 345252 310389 334992 -173042
832781824026063616 345254 310397 335008 -173038
832781824044245504 345263 310372 335029 -173056
832781824062427264 345237 310377 335002 -173075
832781824080609152 345211 310408 334990 -173044
832781824098790912 345244 310372 335000 -173100
832781824116972800 345245 310367 335030 -173106
832781824135154560 345268 310386 335022 -173099
832781824153336448 345310 310393 335065 -173058
832781824171518208 345248 310367 334994 -173073
832781824189699968 345235 310426 335031 -173029
832781824207881856 345291 310407 335039 -173040
832781824226063616 345253 310428 335037 -173041
832781824244245504 345219 310358 335023 -173039
832781824262427264 345220 310431 335059 -173107
832781824280609152 345268 310426 335060 -173073
832781824298790912 345302 310444 335056 -173030
832781824316972800 345210 310385 334978 -173102
832781824335154560 345335 310415 335020 -173027
832781824353336448 345265 310455 335019 -173038
832781824371518208 345289 310457 335063 -173051
832781824389699968 345297 310425 335005 -173063
832781824407881856 345250 310415 335030 -173035
832781824426063616 345253 310428 335044 -173004
832781824444245504 345283 310416 335014 -173077
832781824462427264 345319 310377 335020 -173033
832781824480609152 345293 310486 335062 -173085
832781824498790912 345311 310448 335023 -173001
832781824516972800 345302 310383 335024 -172994
832781824535154560 345240 310423 335012 -173072
832781824553336448 345282 310422 335028 -173030
832781824571518208 345295 310448 335007 -173041
832781824589699968 345362 310411 335018 -173041
832781824607881856 345307 310453 335060 -173042
832781824626063616 345270 310367 335002 -173062
832781824644245504 345260 310426 335012 -173057
832781824662427264 345270 310454 335024 -173052
832781824680609152 345230 310375 334933 -173055
832781824698790912 345317 310376 334983 -173042
832781824716972800 345298 310419 335041 -173056
832781824735154560 345318 310466 335043 -173035
832781824753336448 345310 310404 335010 -173021
832781824771518208 345284 310421 335067 -173009
832781824789699968 345334 310359 335006 -173005
832781824807881856 345347 310357 335020 -172997
832781824826063616 345300 310412 335068 -173046
832781824844245504 345317 310414 335007 -173036
832781824862427264 345278 310416 335082 -173026
832781824880609152 345217 310357 335022 -173053
832781824898790942 345266 310356 335002 -173079
832781824917003392 345320 310441 335029 -173055
832781824935215872 345314 310412 335087 -173050
832781824953428224 345363 310378 335009 -173060
832781824971640704 345281 310441 335058 -173059
832781824989853184 345281 310430 335101 -172994
832781825008065536 345288 310379 335068 -173045
832781825026278016 345287 310423 335029 -173057
832781825044490496 345259 310401 335022 -173073
832781825062702848 345272 310328 335027 -173059
832781825080915328 345303 310370 335052 -173045
832781825099127808 345306 310443 335036 -173027
832781825117340160 345285 310445 334989 -173095
832781825135552640 345342 310470 335003 -173057
832781825153765120 345333 310475 335017 -173046
832781825171977472 345302 310398 335032 -173021
832781825190189952 345240 310446 335048 -173026
832781825208402432 345273 310453 335035 -173070
832781825226614784 345302 310427 335057 -173057
832781825244827264 345327 310438 335097 -173081
832781825263039744 345308 310442 335033 -173023
832781825281252096 345239 310427 335028 -173054
832781825299464576 345263 310424 335014 -173045
832781825317677056 345306 310428 335020 -173028
832781825335889408 345277 310431 335010 -173003
832781825354101888 345315 310422 335046 -173058
832781825372314368 345331 310397 335020 -173063
832781825390526848 345291 310388 335002 -173044
832781825408739200 345259 310443 335022 -173004
832781825426951680 345253 310445 335060 -173028
832781825445164160 345304 310456 335026 -173021
832781825463376512 345272 310449 334999 -173040
832781825481588992 345305 310393 335015 -173021
832781825499801472 345314 310461 335039 -172982
832781825518013824 345253 310443 335043 -173048
832781825536226304 345255 310452 335032 -173014
832781825554438784 345320 310507 335049 -172995
832781825572651136 345273 310435 335063 -172987
832781825590863616 345255 310430 335001 -173028
832781825609076096 345232 310375 334960 -173026
832781825627288448 345244 310458 334993 -173014
832781825645500928 345269 310450 335070 -173041
832781825663713408 345259 310488 335032 -173001
832781825681925760 345276 310470 335027 -173013
832781825700138240 345331 310473 335060 -173001
832781825718350720 345306 310418 335040 -173033
832781825736563072 345288 310459 335031 -173077
832781825754775552 345327 310376 334983 -173019
832781825772988032 345293 310409 334998 -173004
832781825791200384 345314 310423 334998 -173024
832781825809412864 345294 310480 335082 -172959
832781825827625344 345282 310419 335039 -173010
832781825845837728 345282 310389 335009 -172973
832781825864049920 345223 310405 334950 -173088
832781825882262144 345254 310416 334962 -173091
832781825900474368 345257 310418 334988 -173038
832781825918686720 345267 310431 335023 -173047
832781825936898944 345279 310361 335050 -173045
832781825955111168 345254 310355 334990 -173055
832781825973323392 345245 310423 335030 -173038
832781825991535744 345349 310452 335036 -173046
832781826009747968 345209 310364 334983 -173137
832781826027960192 345212 310359 334983 -173091
832781826046172416 345227 310323 334926 -173093
832781826064384640 345264 310343 334950 -172990
832781826082596992 345257 310341 334962 -173086
832781826100809216 345232 310379 335053 -173041
832781826119021440 345253 310416 334980 -173052
832781826137233664 345305 310373 335000 -173107
832781826155446016 345314 310401 335036 -173036
832781826173658240 345262 310415 335025 -173070
832781826191870464 345280 310359 335030 -173045
832781826210082688 345311 310423 335074 -173045
832781826228294912 345287 310367 335040 -172999
832781826246507264 345277 310366 335061 -173048
832781826264719488 345302 310358 335024 -173051
832781826282931712 345302 310432 335047 -173005
832781826301143936 345281 310367 335033 -173031
832781826319356288 345328 310334 335023 -173038
832781826337568512 345336 310344 335016 -173016
832781826355780736 345296 310396 334972 -173025
832781826373992960 345314 310401 334998 -173012
832781826392205184 345243 310369 334982 -173021
832781826410417536 345235 310410 335051 -173029
832781826428629760 345248 310411 335024 -173047
832781826446841984 345287 310435 335006 -173055
832781826465054208 345272 310357 334939 -173045
832781826483266432 345296 310344 334986 -173090
832781826501478784 345317 310353 334977 -173056
832781826519691008 345285 310356 334976 -173039
832781826537903232 345312 310369 335047 -173060
832781826556115456 345300 310349 335041 -173069
832781826574327808 345264 310368 335020 -173073
832781826592540032 345307 310347 334982 -173071
832781826610752256 345295 310371 335002 -173104
832781826628964480 345287 310357 334948 -173113
832781826647176704 345260 310443 334959 -173115
832781826665389056 345231 310361 334915 -173071
832781826683601280 345324 310409 334968 -173008
832781826701813504 345293 310373 334961 -173011
832781826720025834 345281 310427 334991 -173033
832781826738236672 345254 310306 334950 -173079
832781826756447488 345237 310320 334948 -173113
832781826774658304 345253 310386 335002 -173134
832781826792869120 345195 310387 335023 -173153
832781826811080064 345228 310355 335002 -173112
832781826829290880 345272 310339 334929 -173109
832781826847501696 345356 310353 334953 -173089
832781826865712512 345295 310367 334981 -173076
832781826883923328 345369 310345 334977 -173000
832781826902134144 345370 310332 335053 -173080
832781826920344960 345328 310325 334977 -173113
832781826938555904 345281 310395 334977 -173156
832781826956766720 345251 310368 334956 -173128
832781826974977536 345253 310381 335018 -173132
832781826993188352 345252 310334 334975 -173145
832781827011399168 345277 310355 334966 -173128
832781827029609984 345354 310375 334976 -173057
832781827047820800 345316 310339 334937 -173076
832781827066031744 345301 310352 334937 -173099
832781827084242560 345260 310281 334912 -173113
832781827102453376 345272 310354 334948 -173033
832781827120664192 345328 310353 335006 -173114
832781827138875008 345281 310356 334937 -173086
832781827157085824 345394 310386 334966 -173051
832781827175296640 345320 310388 334963 -173060
832781827193507584 345293 310335 334937 -173115
832781827211718400 345274 310388 334943 -173075
832781827229929216 345289 310397 334957 -173107
832781827248140032 345293 310378 334983 -173089
832781827266350848 345318 310381 334951 -173050
832781827284561664 348623 310312 334947 -173046
832781827302772480 352292 315822 334982 -173087
832781827320983296 354024 318415 334998 -173142
832781827339194240 355032 319758 335011 -173111
832781827357405056 355617 320487 334988 -173125
832781827375615872 356017 320900 335074 -173053
832781827393826688 356085 321016 335074 -173080
832781827412037504 355896 320867 335007 -173047
832781827430248360 355534 320607 334974 -173073
832781827448460032 355092 320078 335001 -173061
832781827466671744 354565 319547 335029 -173048
832781827484883328 353985 319008 334996 -173088
832781827503095040 353457 318514 334976 -173075
832781827521306624 353156 318148 334923 -173127
832781827539518336 352897 317940 334973 -173099
832781827557730048 352770 317807 334916 -173067
832781827575941632 352896 317951 335027 -173075
832781827594153344 353035 318116 334959 -173137
832781827612364928 353284 318442 334997 -173123
832781827630576640 353645 318761 334996 -173064
832781827648788224 353958 318978 335056 -173098
832781827666999936 354147 319145 335036 -173048
832781827685211648 354244 319271 335049 -173056
832781827703423232 354347 319437 335025 -173051
832781827721634944 354367 319407 335008 -173053
832781827739846528 354502 319478 335019 -173056
832781827758058240 354524 319473 335034 -173076
832781827776269952 354596 319563 335008 -173086
832781827794481536 354756 319798 334975 -173035
832781827812693248 355098 320064 335025 -173051
832781827830904832 355404 320468 335067 -173044
832781827849116544 355712 320678 335016 -173045
832781827867328128 355963 320999 335023 -173045
832781827885539840 356083 321061 335003 -173063
832781827903751552 355980 321036 335008 -173071
832781827921963136 355710 320781 335035 -173107
832781827940174848 355235 320309 334980 -173130
832781827958386432 354770 319765 335060 -173010
832781827976598144 354200 319249 335012 -173069
832781827994809856 353731 318704 334996 -173106
832781828013021440 353235 318268 334993 -173106
832781828031233152 353047 318085 334960 -173095
832781828049444736 352846 317913 335009 -173107
832781828067656448 352905 317918 335025 -173046
832781828085868084 353017 318074 335050 -173129
832781828104081408 353272 318290 335073 -173091
832781828122294784 353557 318571 335098 -173065
832781828140508160 353795 318890 335063 -173134
832781828158721536 354090 319102 335037 -173069
832781828176934912 354259 319304 335020 -173028
832781828195148416 354290 319354 335005 -173065
832781828213361792 354390 319415 334988 -173107
832781828231575168 354436 319428 335012 -173087
832781828249788544 354464 319520 334992 -173051
832781828268001920 354528 319534 335010 -173136
832781828286215296 354757 319743 335011 -173072
832781828304428672 354926 319959 334982 -173071
832781828322642048 355252 320318 335014 -173074
832781828340855424 355511 320626 334988 -173071
832781828359068928 355755 320863 334989 -173105
832781828377282304 356023 321010 334968 -173108
832781828395495680 356083 321057 335023 -173043
832781828413709056 355845 320873 335060 -173068
832781828431922432 355531 320596 335058 -173068
832781828450135808 355021 320111 335077 -173099
832781828468349184 354502 319555 335085 -173029
832781828486562560 353928 318956 335074 -173075
832781828504775936 353429 318448 334948 -173081
832781828522989312 353064 318139 334999 -173025
832781828541202816 352956 318001 334966 -173078
832781828559416192 352903 317973 334994 -173041
832781828577629568 353013 318025 334974 -173085
832781828595842944 353220 318198 335008 -173074
832781828614056320 353473 318483 335014 -173047
832781828632269696 353711 318833 335020 -173040
832781828650483072 354030 319085 334998 -173068
832781828668696448 354214 319269 335034 -173057
832781828686909824 354321 319337 334942 -173107
832781828705123328 354373 319398 335040 -173090
832781828723336704 354336 319412 335025 -173055
832781828741550080 354409 319455 335018 -173060
832781828759763508 354497 319537 335024 -173047
832781828777976576 354657 319689 335062 -173069
832781828796189696 354869 319907 335083 -173043
832781828814402816 355085 320148 334962 -173104
832781828832616064 355467 320376 334980 -173156
832781828850829184 355746 320737 335087 -173068
832781828869042304 356026 321002 335059 -173029
832781828887255424 356067 321134 335016 -173048
832781828905468544 355953 320999 335035 -173099
832781828923681664 355630 320720 335029 -173078
832781828941894912 355297 320351 335001 -173069
832781828960108032 354688 319738 335033 -173078
832781828978321152 354220 319308 334963 -173121
832781828996534272 353727 318765 335014 -173034
832781829014747392 353235 318279 335041 -173065
832781829032960512 352951 317932 334958 -173116
832781829051173760 352843 317863 334986 -173065
832781829069386880 352922 317910 335047 -173025
832781829087600000 353042 318062 335026 -173069
832781829105813120 353272 318322 335045 -173107
832781829124026240 353659 318660 335073 -172989
832781829142239488 353902 318967 335039 -173079
832781829160452608 354167 319188 335043 -173052
832781829178665728 354239 319319 335015 -173063
832781829196878848 354355 319402 335007 -173097
832781829215091968 354398 319425 334972 -173057
832781829233305088 354468 319469 334997 -173056
832781829251518336 354529 319514 335000 -173060
832781829269731456 354575 319588 334995 -173054
832781829287944576 354731 319743 335005 -173086
832781829306157696 354981 319959 334992 -173092
832781829324370816 355289 320346 335036 -173058
832781829342583936 355601 320658 335043 -173098
832781829360797184 355908 320916 335025 -173054
832781829379010304 356086 321102 334999 -173095
832781829397223424 356083 321105 335012 -173099
832781829415436636 355867 320851 335013 -173055
832781829433649792 355477 320558 335050 -173046
832781829451862912 354997 320059 335099 -173033
832781829470076032 354461 319542 335084 -173010
832781829488289280 353902 318987 335045 -173018
832781829506502400 353554 318582 335029 -173058
832781829524715520 353176 318149 335041 -173039
832781829542928640 352898 317911 334989 -173081
832781829561141760 352893 317904 335067 -173070
832781829579354880 352941 318027 335026 -173074
832781829597568128 353188 318224 334994 -173039
832781829615781248 353488 318473 334965 -173061
832781829633994368 353808 318763 335058 -173062
832781829652207488 354052 319018 334992 -173094
832781829670420608 354215 319215 335030 -173130
832781829688633728 354341 319371 335005 -173048
832781829706846976 354389 319449 334988 -173109
832781829725060096 354433 319491 335022 -173103
832781829743273216 354431 319487 335031 -173095
832781829761486336 354501 319603 335025 -173096
832781829779699456 354611 319722 335043 -173089
832781829797912576 354895 319994 335049 -173054
832781829816125824 355185 320184 335044 -173108
832781829834338944 355426 320543 335053 -173129
832781829852552064 355755 320843 334957 -173134
832781829870765184 356017 321037 334977 -173072
832781829888978304 356092 321067 335033 -173046
832781829907191552 355932 320935 335012 -173093
832781829925404672 355708 320680 335048 -173097
832781829943617792 355200 320276 335042 -173127
832781829961830912 354652 319735 335011 -173137
832781829980044032 354127 319211 335043 -173102
832781829998257152 353625 318656 334994 -173082
832781830016470400 353347 318397 335039 -173134
832781830034683520 353026 318071 335036 -173041
832781830052896614 352877 317903 335019 -173055
832781830071109248 352967 317976 335015 -173051
832781830089321856 353101 318128 334999 -173063
832781830107534464 353335 318395 335039 -173038
832781830125747072 353655 318617 335012 -173072
832781830143959680 353907 318910 334955 -173078
832781830162172160 354136 319216 335003 -173052
832781830180384768 354299 319345 335010 -173030
832781830198597376 354452 319421 335050 -173079
832781830216809984 354501 319447 335078 -173052
832781830235022592 354443 319475 335033 -173061
832781830253235200 354499 319459 334988 -173054
832781830271447808 354593 319631 335041 -173036
832781830289660416 354797 319912 335056 -173026
832781830307873024 355013 319994 335013 -173094
832781830326085632 355304 320311 335060 -173095
832781830344298112 355648 320645 335022 -173090
832781830362510720 355940 320923 335027 -173033
832781830380723328 356069 321136 335008 -173073
832781830398935936 356072 321135 335001 -173040
832781830417148544 355829 320906 335001 -173023
832781830435361152 355450 320562 335100 -173036
832781830453573760 354872 319970 334980 -173061
832781830471786368 354355 319469 334948 -173046
832781830489998976 353885 318868 335047 -173045
832781830508211456 353409 318457 334963 -173096
832781830526424064 353085 318035 334928 -173089
832781830544636672 352916 317897 335011 -173040
832781830562849280 352922 317908 335063 -173019
832781830581061888 353051 318017 335029 -173050
832781830599274496 353232 318255 335070 -173018
832781830617487104 353421 318500 335015 -173069
832781830635699712 353736 318825 335003 -173086
832781830653912320 354015 319105 334997 -173124
832781830672124928 354264 319277 335005 -173010
832781830690337408 354315 319385 334977 -173072
832781830708550016 354399 319423 334977 -173113
832781830726762624 354377 319405 334988 -173145
832781830744975232 354448 319446 334965 -173116
832781830763187804 354579 319575 335066 -173023
832781830781401216 354642 319705 335008 -173106
832781830799614592 354854 319960 334954 -173097
832781830817827840 355177 320308 335024 -173099
832781830836041216 355499 320556 335050 -173055
832781830854254464 355861 320850 335087 -173057
832781830872467840 356064 321048 335041 -173061
832781830890681088 356096 321041 335017 -173045
832781830908894464 355965 320992 335007 -173065
832781830927107712 355659 320655 335043 -173022
832781830945321088 355183 320164 335058 -173024
832781830963534336 354674 319668 335026 -173063
832781830981747712 354127 319099 335011 -173038
832781830999960960 353612 318628 335042 -173073
832781831018174336 353154 318153 334965 -173104
832781831036387584 352929 317945 335015 -173059
832781831054600960 352852 317866 335019 -173113
832781831072814208 352916 317999 335017 -173034
832781831091027584 353053 318164 335008 -173069
832781831109240832 353378 318478 335015 -173072
832781831127454208 353725 318729 335073 -173042
832781831145667456 353955 318991 335022 -173089
832781831163880832 354145 319154 334991 -173048
832781831182094080 354332 319368 334978 -173027
832781831200307456 354422 319440 334972 -173054
832781831218520704 354492 319462 335016 -173086
832781831236734080 354480 319520 335016 -173069
832781831254947328 354530 319612 335033 -173060
832781831273160704 354628 319656 335014 -173058
832781831291373952 354789 319861 335028 -173107
832781831309587328 355094 320099 335045 -173058
832781831327800576 355357 320407 335058 -173093
832781831346013952 355733 320736 335070 -173021
832781831364227200 355982 320968 335025 -173075
832781831382440576 356143 321122 335031 -173042
832781831400653824 356051 321099 334998 -173102
832781831418867038 355832 320819 335037 -173109
832781831437080576 355428 320470 335000 -173122
832781831455294080 354855 319918 335019 -173089
832781831473507712 354313 319339 334962 -173104
832781831491721216 353870 318913 334991 -173086
832781831509934848 353441 318482 334980 -173094
832781831528148352 353009 318023 335003 -173108
832781831546361984 352844 317862 334965 -173054
832781831564575488 352874 317865 334932 -173073
832781831582789120 353020 318002 334943 -173082
832781831601002624 353277 318264 334981 -173108
832781831619216256 353549 318568 335050 -173106
832781831637429760 353826 318864 335065 -173080
832781831655643392 354019 319161 335002 -173088
832781831673856896 354225 319371 334979 -173108
832781831692070528 354374 319399 334986 -173069
832781831710284032 354469 319503 335061 -173050
832781831728497664 354476 319487 335034 -173057
832781831746711168 354508 319575 335047 -173058
832781831764924800 354583 319636 334983 -173081
832781831783138304 354705 319728 335018 -173064
832781831801351936 354941 319950 334994 -173092
832781831819565440 355222 320232 335003 -173076
832781831837779072 355528 320580 335010 -173106
832781831855992576 355816 320777 334964 -173077
832781831874206208 356074 321041 334984 -173091
832781831892419712 356080 321066 335027 -173130
832781831910633344 355933 320935 334983 -173099
832781831928846848 355612 320635 334981 -173077
832781831947060480 355142 320195 335046 -173093
832781831965273984 354604 319662 334959 -173120
832781831983487616 354038 319076 335026 -173050
832781832001701120 353673 318679 335070 -173040
832781832019914752 353183 318260 335024 -173026
832781832038128256 352971 318020 335036 -173036
832781832056341888 352859 317871 334999 -173086
832781832074555424 352923 318002 334976 -173040
832781832092768640 353109 318207 334974 -173067
832781832110981888 353409 318483 334997 -173140
832781832129195136 353691 318792 335014 -173062
832781832147408384 353919 318959 335014 -173113
832781832165621760 354172 319195 335011 -173080
832781832183835008 354357 319366 334978 -173112
832781832202048256 354426 319444 335015 -173055
832781832220261504 354386 319433 334955 -173150
832781832238474752 354457 319539 334957 -173110
832781832256688000 354509 319570 334968 -173079
832781832274901248 354656 319670 335014 -173060
832781832293114624 354829 319828 335029 -173078
832781832311327872 355078 320061 334942 -173126
832781832329541120 355451 320434 334994 -173043
832781832347754368 355664 320726 334972 -173126
832781832365967616 355993 320957 334972 -173062
832781832384180864 356068 321134 334977 -173048
832781832402394112 355985 321067 334953 -173026
832781832420607488 355796 320762 335013 -173060
832781832438820736 355324 320314 334957 -173113
832781832457033984 354820 319858 334923 -173085
832781832475247232 354268 319262 335037 -173065
832781832493460480 353744 318796 335019 -173094
832781832511673728 353444 318454 335045 -173123
832781832529886976 353030 318070 335005 -173059
832781832548100352 352910 317918 335034 -173037
832781832566313600 352883 317933 334934 -173060
832781832584526848 352989 318056 334965 -173096
832781832602740096 353263 318314 334965 -172987
832781832620953344 353561 318566 334978 -173064
832781832639166592 353816 318809 334948 -173077
832781832657379840 354014 319017 334927 -173080
832781832675593216 354281 319294 334980 -173055
832781832693806464 354399 319407 335010 -173108
832781832712019712 354392 319421 334956 -173097
832781832730232960 354454 319437 334944 -173078
832781832748446272 354519 319514 335095 -173041
832781832766660864 354593 319636 335020 -173079
832781832784875520 354766 319698 335029 -173069
832781832803090176 354988 319947 335005 -173098
832781832821304832 355332 320314 335057 -173045
832781832839519488 355571 320653 335074 -173136
832781832857734144 355889 320956 335035 -173105
832781832875948928 356065 321164 335037 -173103
832781832894163584 356125 321188 335019 -173094
832781832912378240 355906 321007 335035 -173153
832781832930592896 355538 320563 335000 -173121
832781832948807552 355078 320098 334960 -173094
832781832967022208 354513 319533 334949 -173043
832781832985236864 353939 318967 334978 -173093
832781833003451520 353532 318545 334967 -173046
832781833021666176 353268 318297 334961 -173086
832781833039880832 352996 318049 335027 -173018
832781833058095616 352976 317973 335082 -173025
832781833076310272 352973 317965 335033 -173069
832781833094524928 353119 318190 334960 -173079
832781833112739584 353430 318451 335018 -173060
832781833130954240 353752 318812 335040 -173069
832781833149168896 354026 319061 335039 -173099
832781833167383552 354179 319290 334998 -173081
832781833185598208 354344 319411 335081 -173068
832781833203812864 354382 319451 335003 -173065
832781833222027520 354457 319493 335018 -173086
832781833240242304 354497 319514 335005 -173099
832781833258456960 354544 319553 335036 -173089
832781833276671616 354637 319678 335029 -173071
832781833294886272 354855 319864 335006 -173061
832781833313100928 355121 320124 334977 -173028
832781833331315584 355374 320439 334995 -173099
832781833349530240 355760 320809 335046 -173037
832781833367744896 356036 321020 334976 -173077
832781833385959552 356137 321086 334988 -173070
832781833404174208 356029 321011 334983 -173041
832781833422389000 355805 320832 334998 -173053
832781833440601856 355354 320350 335040 -173104
832781833458814720 354727 319788 334956 -173120
832781833477027712 354167 319276 334928 -173088
832781833495240576 353724 318714 335000 -173098
832781833513453568 353328 318326 335042 -173055
832781833531666432 353103 318172 334986 -173075
832781833549879424 352939 317986 334949 -173057
832781833568092288 352916 317996 334963 -173048
832781833586305280 353087 318125 335032 -173074
832781833604518144 353315 318325 335000 -173057
832781833622731136 353607 318602 335008 -173028
832781833640944000 353888 318877 334978 -173085
832781833659156992 354155 319149 335043 -173057
832781833677369856 354269 319275 335017 -173077
832781833695582848 354356 319439 335063 -173027
832781833713795712 354462 319427 335002 -173050
832781833732008704 354450 319453 334949 -173088
832781833750221568 354453 319501 335006 -173069
832781833768434432 354568 319640 335031 -173030
832781833786647424 354781 319793 334988 -173044
832781833804860288 354998 320049 335057 -173042
832781833823073280 355241 320320 335034 -173062
832781833841286144 355599 320619 335034 -173091
832781833859499136 355879 320902 335031 -173093
832781833877712000 356041 321099 335015 -173092
832781833895924992 356074 321079 335026 -173053
832781833914137856 355981 320967 335047 -173035
832781833932350848 355555 320587 334995 -173072
832781833950563712 355050 320097 335068 -173036
832781833968776704 354485 319509 334986 -173111
832781833986989568 353958 318954 334992 -173151
832781834005202560 353426 318515 334931 -173116
832781834023415424 353130 318165 335018 -173080
832781834041628416 352917 317940 334972 -173055
832781834059841350 352841 317937 335045 -173028
832781834078054784 352940 317991 335026 -173073
832781834096268160 353217 318237 335039 -173056
832781834114481408 353537 318496 335041 -173057
832781834132694784 353767 318701 334977 -173071
832781834150908160 354052 319012 335018 -173057
832781834169121536 354312 319261 335091 -172989
832781834187334784 354409 319394 335062 -173062
832781834205548160 354440 319415 335014 -173072
832781834223761536 354457 319486 335051 -173085
832781834241974784 354481 319571 335033 -173105
832781834260188160 354567 319626 335069 -173043
832781834278401536 354743 319737 335023 -173037
832781834296614784 354870 319912 335041 -173070
832781834314828160 355116 320178 335073 -173097
832781834333041536 355528 320499 335034 -173039
832781834351254912 355817 320817 335028 -173006
832781834369468160 356006 321110 335052 -173011
832781834387681536 356180 321192 335078 -173050
832781834405894912 356064 321065 335061 -173026
832781834424108160 355686 320717 335025 -173075
832781834442321536 355293 320307 335019 -173105
832781834460534912 354751 319834 335027 -173041
832781834478748160 354346 319368 335058 -173024
832781834496961536 353717 318721 335012 -173053
832781834515174912 353272 318276 334994 -173091
832781834533388288 352999 318014 334980 -173072
832781834551601536 352865 317901 334988 -173104
832781834569814912 352952 317986 335014 -173098
832781834588028288 353048 318154 335025 -173121
832781834606241536 353338 318343 335019 -173144
832781834624454912 353637 318696 335019 -173074
832781834642668288 353937 318974 335049 -173100
832781834660881664 354134 319142 335065 -173132
832781834679094912 354253 319307 334998 -173092
832781834697308288 354429 319450 335048 -173047
832781834715521664 354415 319495 335030 -173062
832781834733734912 354449 319533 335014 -173069
832781834751948288 354516 319486 335018 -173085
832781834770161532 354596 319594 334965 -173061
832781834788374656 354759 319746 335034 -173126
832781834806587776 355043 320035 335056 -173071
832781834824800896 355243 320297 335018 -173105
832781834843014144 355582 320668 334981 -173077
832781834861227264 355875 320909 335001 -173040
832781834879440384 356123 321157 334966 -173059
832781834897653504 356115 321151 335008 -173062
832781834915866624 355865 320906 335032 -173108
832781834934079744 355440 320473 335005 -173097
832781834952292992 354931 320059 335017 -173050
832781834970506112 354445 319441 335019 -173082
832781834988719232 353895 318933 335073 -173098
832781835006932352 353432 318469 335056 -173045
832781835025145472 353085 318069 335012 -173078
832781835043358592 352886 317877 334989 -173087
832781835061571840 352903 317870 335001 -173005
832781835079784960 353002 317996 335047 -173038
832781835097998080 353181 318200 334962 -173087
832781835116211200 353468 318495 335012 -173042
832781835134424320 353751 318771 334994 -173059
832781835152637568 353990 319072 334994 -173095
832781835170850688 354184 319223 335048 -173086
832781835189063808 354332 319355 335014 -173064
832781835207276928 354367 319422 334940 -173067
832781835225490048 354384 319491 334996 -173097
832781835243703168 354476 319499 335009 -173075
832781835261916416 354539 319517 335029 -173058
832781835280129536 354692 319694 335029 -173069
832781835298342656 354852 319935 334983 -173116
832781835316555776 355134 320209 334972 -173121
832781835334768896 355546 320475 335010 -173113
832781835352982016 355813 320816 335009 -173088
832781835371195264 356058 321060 335019 -173120
832781835389408384 356114 321140 335009 -173092
832781835407621504 356006 321065 335024 -173086
832781835425834660 355698 320702 335053 -173047
832781835444047744 355197 320225 335013 -173073
832781835462260864 354632 319696 334968 -173096
832781835480473984 354117 319110 334965 -173165
832781835498687232 353606 318619 335027 -173128
832781835516900352 353354 318378 335011 -173064
832781835535113472 353041 318049 334974 -173071
832781835553326592 352864 317860 335011 -173076
832781835571539712 352951 317998 334997 -173082
832781835589752832 353100 318098 334966 -173108
832781835607966080 353319 318364 334919 -173068
832781835626179200 353695 318702 334991 -173089
832781835644392320 353961 318975 335019 -173111
832781835662605440 354157 319139 335025 -173092
832781835680818560 354348 319376 335057 -173073
832781835699031680 354399 319434 334991 -173120
832781835717244928 354411 319484 335023 -173133
832781835735458048 354424 319509 335058 -173063
832781835753671168 354534 319586 335025 -173075
832781835771884288 354674 319678 335001 -173074
832781835790097408 354818 319836 335040 -173070
832781835808310656 355025 320092 335006 -173069
832781835826523776 355335 320394 335063 -173097
832781835844736896 355647 320784 335057 -173079
832781835862950016 355965 320997 335041 -173091
832781835881163136 356207 321175 335052 -173068
832781835899376256 356119 321116 335056 -173092
832781835917589504 355814 320834 334995 -173092
832781835935802624 355447 320462 335024 -173067
832781835954015744 354905 319909 335032 -173085
832781835972228864 354417 319379 335030 -173076
832781835990441984 353754 318889 335044 -173143
832781836008655104 353381 318417 335007 -173035
832781836026868352 353049 318125 335008 -173068
832781836045081472 352907 317977 335044 -173072
832781836063294592 352839 317921 334980 -173090
832781836081507788 353003 318053 335005 -173027
832781836099721088 353208 318239 335015 -173072
832781836117934336 353543 318527 335022 -173069
832781836136147584 353838 318918 335033 -173104
832781836154360832 354089 319141 335042 -173091
832781836172574208 354243 319308 335048 -173064
832781836190787456 354348 319428 335011 -173124
832781836209000704 354416 319419 334975 -173110
832781836227213952 354456 319543 335020 -173136
832781836245427200 354454 319491 335020 -173122
832781836263640448 354498 319505 335005 -173150
832781836281853696 354730 319702 335008 -173100
832781836300067072 354914 319990 334972 -173115
832781836318280320 355216 320237 335020 -173095
832781836336493568 355563 320529 334986 -173120
832781836354706816 355812 320833 334979 -173148
832781836372920064 356101 321092 334963 -173122
832781836391133312 356108 321108 334996 -173053
832781836409346560 355989 321040 334986 -173071
832781836427559936 355680 320667 335041 -173060
832781836445773184 355207 320205 335018 -173069
832781836463986432 354636 319685 335012 -173087
832781836482199680 354118 319128 335028 -173125
832781836500412928 353616 318570 335024 -173080
832781836518626176 353212 318185 335002 -173048
832781836536839424 352958 317955 334995 -173068
832781836555052800 352872 317884 334979 -173137
832781836573266048 352938 317952 334957 -173047
832781836591479296 353079 318118 334977 -173104
832781836609692544 353401 318343 334998 -173093
832781836627905792 353611 318631 334945 -173114
832781836646119040 353885 318956 334968 -173112
832781836664332288 354169 319157 334976 -173087
832781836682545664 354298 319321 334998 -173117
832781836700758912 354389 319403 334983 -173140
832781836718972160 354409 319480 335003 -173131
832781836737185408 354462 319483 334989 -173113
832781836755398636 354493 319553 335036 -173113
832781836773612544 354665 319694 335054 -173067
832781836791826432 354781 319838 335049 -173050
832781836810040192 355054 320106 335015 -173060
832781836828254080 355362 320400 334971 -173068
832781836846467968 355661 320696 334943 -173042
832781836864681728 355976 320953 334957 -173042
832781836882895616 356091 321163 335017 -173117
832781836901109504 356055 321136 335048 -173097
832781836919323264 355779 320816 335016 -173100
832781836937537152 355424 320427 335008 -173031
832781836955751040 354940 319900 335034 -173104
832781836973964800 354317 319390 335045 -173127
832781836992178688 353836 318844 335035 -173106
832781837010392448 353358 318415 335025 -173095
832781837028606336 353006 318094 334957 -173074
832781837046820224 352891 317922 334983 -173076
832781837065033984 352922 317966 335068 -173023
832781837083247872 353053 318098 335084 -173054
832781837101461760 353281 318362 335050 -173089
832781837119675520 353548 318582 334932 -173050
832781837137889408 353913 318922 334999 -173009
832781837156103296 354127 319112 334986 -173074
832781837174317056 354251 319305 335032 -173087
832781837192530944 354360 319420 335010 -173110
832781837210744832 354430 319459 335043 -173073
832781837228958592 354412 319457 334997 -173111
832781837247172480 354507 319558 335029 -173097
832781837265386368 354586 319600 335084 -173102
832781837283600128 354817 319741 335054 -173088
832781837301814016 354986 319943 334994 -173094
832781837320027904 355282 320301 335017 -173103
832781837338241664 355595 320616 335043 -173112
832781837356455552 355849 320905 335068 -173094
832781837374669440 356081 321097 335048 -173117
832781837392883200 356115 321108 335057 -173091
832781837411097088 355937 320987 335012 -173058
832781837429310846 355545 320608 335000 -173056
832781837447523328 355111 320145 334998 -173037
832781837465735808 354616 319583 335075 -173085
832781837483948288 354070 319113 335060 -173073
832781837502160768 353712 318730 334976 -173058
832781837520373248 353274 318311 335075 -173054
832781837538585600 352956 318045 335002 -173093
832781837556798080 352888 317897 334968 -173062
832781837575010560 352969 318007 335030 -173092
832781837593223040 353133 318177 335012 -173057
832781837611435520 353426 318430 335002 -173087
832781837629648000 353700 318745 335028 -173093
832781837647860480 353990 319003 335046 -173098
832781837666072832 354218 319230 335034 -173082
832781837684285312 354347 319318 334958 -173154
832781837702497792 354436 319493 335014 -173086
832781837720710272 354436 319518 335074 -173102
832781837738922752 354443 319459 335018 -173064
832781837757135232 354532 319580 335082 -173039
832781837775347712 354664 319684 335108 -173023
832781837793560192 354867 319853 335071 -173106
832781837811772672 355118 320104 335044 -173092
832781837829985024 355426 320467 335018 -173115
832781837848197504 355714 320746 335023 -173104
832781837866409984 356051 321009 335056 -173099
832781837884622464 356142 321168 335048 -173041
832781837902834944 356033 321048 334948 -173036
832781837921047424 355704 320726 335005 -173082
832781837939259904 355306 320369 335075 -173058
832781837957472256 354804 319865 335027 -173086
832781837975684736 354331 319386 335057 -173062
832781837993897216 353754 318779 335011 -173067
832781838012109696 353387 318484 335047 -173121
832781838030322176 353116 318101 335049 -173136
832781838048534656 352900 317949 335050 -173059
832781838066747136 352939 317967 335068 -173074
832781838084959550 353091 318113 335030 -173014
832781838103173248 353291 318312 335007 -173067
832781838121387008 353527 318610 335013 -173072
832781838139600768 353852 318927 334992 -173034
832781838157814528 354104 319089 334991 -173061
832781838176028288 354325 319341 335008 -173081
832781838194242048 354398 319385 335031 -173108
832781838212455808 354420 319398 334963 -173144
832781838230669568 354456 319417 334957 -173096
832781838248883456 354478 319500 334984 -173125
832781838267097216 354569 319566 334988 -173114
832781838285310976 354722 319732 334941 -173090
832781838303524736 355021 319971 335007 -173061
832781838321738496 355294 320307 335019 -173053
832781838339952256 355605 320585 335006 -173072
832781838358166016 355928 320891 334959 -173023
832781838376379776 356163 321041 334988 -173073
832781838394593536 356081 321085 335014 -173080
832781838412807296 355935 320909 335043 -173075
832781838431021056 355559 320558 335017 -173076
832781838449234816 355048 320079 335048 -173122
832781838467448576 354547 319570 335057 -173080
832781838485662336 354022 318992 335023 -173093
832781838503876096 353506 318458 334964 -173137
832781838522089984 353186 318212 334983 -173073
832781838540303744 352946 317988 335056 -173056
832781838558517504 352892 317891 335014 -173140
832781838576731264 352975 318003 335012 -173062
832781838594945024 353203 318210 335061 -173088
832781838613158784 353447 318476 335010 -173075
832781838631372544 353737 318742 335027 -173024
832781838649586304 353975 318986 334914 -173148
832781838667800064 354208 319181 334993 -173136
832781838686013824 354356 319373 335016 -173097
832781838704227584 354436 319401 335005 -173147
832781838722441344 354445 319421 335015 -173133
832781838740655104 354432 319435 334954 -173121
832781838758868864 354561 319538 334993 -173110
832781838777082624 354687 319680 335015 -173081
832781838795296520 354853 319900 334954 -173070
832781838813509632 355157 320134 334988 -173153
832781838831722752 355440 320452 334953 -173129
832781838849935872 355787 320760 335006 -173033
832781838868149120 356034 321042 334961 -173107
832781838886362240 356118 321204 334998 -173100
832781838904575360 355966 321083 334992 -173160
832781838922788480 355701 320740 334972 -173132
832781838941001600 355311 320333 335015 -173096
832781838959214720 354795 319778 335023 -173079
832781838977427968 354212 319286 334978 -173097
832781838995641088 353696 318753 334964 -173096
832781839013854208 353360 318302 334971 -173087
832781839032067328 353189 318244 335051 -173057
832781839050280448 352973 317971 335069 -173103
832781839068493568 352908 317926 335002 -173087
832781839086706816 353015 318102 334977 -173140
832781839104919936 353309 318360 334997 -173075
832781839123133056 353632 318616 335020 -173080
832781839141346176 353880 318892 334964 -173127
832781839159559296 354138 319159 335001 -173092
832781839177772544 354326 319386 335005 -173040
832781839195985664 354382 319402 334951 -173090
832781839214198784 354490 319478 334960 -173035
832781839232411904 354507 319490 334993 -173035
832781839250625024 354519 319484 334981 -173089
832781839268838144 354637 319588 334985 -173076
832781839287051392 354791 319768 334968 -173074
832781839305264512 355053 320027 335042 -173052
832781839323477632 355295 320289 334974 -173061
832781839341690752 355571 320602 334961 -173068
832781839359903872 355915 320915 334999 -173088
832781839378116992 356149 321157 335019 -173119
832781839396330240 356105 321125 335016 -173069
832781839414543360 355925 320929 335034 -173097
832781839432756506 355508 320550 334990 -173099
832781839450969344 355020 320115 335006 -173114
832781839469182208 354460 319480 334973 -173121
832781839487395072 353871 318964 334979 -173116
832781839505607936 353376 318478 334913 -173130
832781839523820800 353109 318159 334945 -173109
832781839542033664 352910 317925 334923 -173125
832781839560246528 352886 317826 334924 -173112
832781839578459264 352942 317913 334990 -173112
832781839596672128 353199 318239 335008 -173070
832781839614884992 353440 318465 334984 -173091
832781839633097856 353700 318810 335002 -173128
832781839651310720 354024 319058 334995 -173076
832781839669523584 354237 319290 335045 -173093
832781839687736448 354325 319366 335035 -173116
832781839705949312 354447 319346 334978 -173060
832781839724162176 354432 319462 335005 -173116
832781839742375040 354394 319451 334985 -173086
832781839760587904 354476 319540 334951 -173108
832781839778800768 354640 319648 335033 -173093
832781839797013504 354859 319910 335043 -173086
832781839815226368 355149 320234 335017 -173069
832781839833439232 355493 320512 335002 -173087
832781839851652096 355714 320765 335006 -173133
832781839869864960 355984 321028 335022 -173126
832781839888077824 356112 321151 334967 -173082
832781839906290688 356001 320989 334967 -173063
832781839924503552 355745 320662 334956 -173114
832781839942716416 355309 320309 334976 -173069
832781839960929280 354700 319791 335019 -173108
832781839979142144 354181 319188 335005 -173153
832781839997355008 353705 318681 335040 -173098
832781840015567872 353235 318309 334992 -173096
832781840033780608 352985 317950 335012 -173099
832781840051993472 352860 317877 334968 -173121
832781840070206336 352922 317908 335018 -173122
832781840088419200 353096 318110 335094 -173013
832781840106632094 353328 318360 335011 -173130
832781840124844672 353626 318636 334999 -173099
832781840143057280 353890 318905 335006 -173125
832781840161269888 354174 319205 335065 -173056
832781840179482496 354320 319324 334994 -173082
832781840197695104 354397 319415 335058 -173070
832781840215907712 354480 319502 335013 -173077
832781840234120320 354430 319478 334982 -173142
832781840252332928 354517 319540 334981 -173173
832781840270545536 354555 319615 335003 -173097
832781840288758144 354708 319838 335036 -173072
832781840306970752 355047 320032 335005 -173059
832781840325183360 355327 320318 335002 -173095
832781840343395968 355672 320660 335026 -173133
832781840361608576 355970 320923 335047 -173096
832781840379821184 356115 321075 335048 -173113
832781840398033792 356079 321075 335053 -173041
832781840416246400 355860 320868 335048 -173089
832781840434459008 355495 320504 335069 -173082
832781840452671616 354960 320011 335009 -173125
832781840470884224 354359 319445 334986 -173153
832781840489096832 353870 318923 335037 -173115
832781840507309440 353421 318500 334995 -173064
832781840525522048 353127 318189 334960 -173054
832781840543734656 352853 317904 334941 -173125
832781840561947264 352861 317881 334944 -173107
832781840580159872 352923 317932 334914 -173107
832781840598372480 353252 318226 334958 -173064
832781840616585088 353504 318527 334981 -173109
832781840634797696 353778 318778 334894 -173075
832781840653010304 354113 319073 334975 -173085
832781840671222912 354369 319299 335039 -173055
832781840689435520 354437 319355 335039 -173040
832781840707648128 354513 319522 335035 -173147
832781840725860736 354499 319519 335017 -173085
832781840744073344 354525 319490 335035 -173016
832781840762285952 354563 319601 335000 -173036
832781840780498528 354633 319725 335037 -173068
832781840798711680 354934 319913 335040 -173087
832781840816924800 355175 320129 334963 -173082
832781840835137920 355531 320558 334981 -173124
832781840853351168 355817 320871 334984 -173109
832781840871564288 356106 321091 334959 -173097
832781840889777408 356124 321141 335003 -173095
832781840907990528 356019 321015 334986 -173069
832781840926203648 355705 320684 335028 -173123
832781840944416768 355214 320243 335025 -173099
832781840962630016 354627 319702 334984 -173149
832781840980843136 354101 319174 334994 -173144
832781840999056256 353625 318642 335000 -173120
832781841017269376 353333 318381 335018 -173150
832781841035482496 353069 318052 335094 -173160
832781841053695616 352954 317923 335060 -173131
832781841071908864 352944 317985 335013 -173050
832781841090121984 353097 318122 335064 -173105
832781841108335104 353360 318449 335054 -173087
832781841126548224 353609 318623 334958 -173052
832781841144761344 353979 319023 335033 -173061
832781841162974592 354159 319254 335068 -173057
832781841181187712 354383 319370 335041 -173055
832781841199400832 354425 319453 335018 -173085
832781841217613952 354495 319536 335077 -173041
832781841235827072 354435 319449 335051 -173137
832781841254040192 354531 319517 335048 -173082
832781841272253440 354659 319677 335020 -173071
832781841290466560 354803 319837 334997 -173079
832781841308679680 355061 320048 334995 -173062
832781841326892800 355361 320363 334983 -173104
832781841345105920 355701 320685 334997 -173067
832781841363319040 355970 320920 334976 -173075
832781841381532288 356148 321143 335009 -173039
832781841399745408 356088 321141 335022 -173021
832781841417958528 355860 320847 334981 -173105
832781841436171656 355438 320467 335034 -173080
832781841454384768 354946 319926 334955 -173102
832781841472597888 354358 319404 334966 -173082
832781841490811008 353819 318832 335011 -173097
832781841509024256 353439 318452 335039 -172978
832781841527237376 353059 318054 335009 -173026
832781841545450496 352914 317950 335048 -173062
832781841563663616 352998 317970 335069 -172995
832781841581876736 353116 318029 335040 -173081
832781841600089856 353289 318291 335079 -173096
832781841618303104 353613 318556 335039 -173105
832781841636516224 353848 318878 335103 -173120
832781841654729344 354065 319169 335064 -173053
832781841672942464 354258 319282 334984 -173074
832781841691155584 354427 319401 335016 -173053
832781841709368704 354459 319429 335020 -173064
832781841727581952 354498 319483 335012 -173035
832781841745795072 354498 319497 334981 -173009
832781841764008192 354600 319566 335017 -173073
832781841782221312 354689 319727 335025 -173074
832781841800434432 354915 319965 335024 -173043
832781841818647552 355305 320249 335045 -173072
832781841836860800 355558 320560 334994 -173021
832781841855073920 355869 320864 335019 -173051
832781841873287040 356047 321036 335034 -173113
832781841891500160 356129 321130 335062 -173072
832781841909713280 355972 320999 335062 -173027
832781841927926528 355619 320697 335042 -173111
832781841946139648 355184 320224 335005 -173093
832781841964352768 354685 319687 335046 -173109
832781841982565888 354112 319145 335023 -173114
832781842000779008 353650 318682 335047 -173053
832781842018992128 353259 318237 335006 -173087
832781842037205376 352981 317987 334976 -173100
832781842055418496 352894 317920 334961 -173051
832781842073631634 352956 317984 335023 -173086
832781842091844736 353163 318220 334988 -173027
832781842110057856 353438 318486 335036 -173076
832781842128270976 353717 318727 334996 -173056
832781842146484224 354007 318988 335019 -173036
832781842164697344 354283 319278 335084 -173044
832781842182910464 354314 319338 335051 -173121
832781842201123584 354482 319464 335080 -173087
832781842219336704 354473 319491 335023 -173033
832781842237549824 354516 319552 335086 -173019
832781842255763072 354572 319556 335064 -172997
832781842273976192 354657 319658 335026 -173047
832781842292189312 354810 319799 335010 -173107
832781842310402432 355078 320052 335016 -173075
832781842328615552 355399 320456 335059 -172997
832781842346828672 355741 320750 335026 -173069
832781842365041920 356021 321008 335051 -173117
832781842383255040 356157 321169 335099 -173105
832781842401468160 356095 321110 335018 -173122
832781842419681280 355791 320783 335028 -173067
832781842437894400 355382 320411 335070 -173036
832781842456107648 354892 319977 335046 -172989
832781842474320768 354344 319388 335026 -173029
832781842492533888 353832 318816 335040 -173056
832781842510747008 353412 318405 335064 -173064
832781842528960128 353076 318046 335031 -173092
832781842547173248 352942 317919 335037 -173063
832781842565386496 352927 317885 335061 -173078
832781842583599616 353063 318090 334985 -173104
832781842601812736 353375 318345 335085 -173036
832781842620025856 353618 318615 335071 -173061
832781842638238976 353923 318908 335120 -173039
832781842656452096 354142 319172 335043 -173024
832781842674665344 354300 319257 335056 -173030
832781842692878464 354367 319403 335007 -173072
832781842711091584 354432 319473 335086 -173056
832781842729304704 354480 319506 335025 -173051
832781842747517824 354515 319540 335022 -173092
832781842765730944 354651 319629 335011 -173045
832781842783944188 354735 319773 335042 -173070
832781842802156032 355019 320032 335095 -172979
832781842820367872 355299 320322 335063 -173022
832781842838579712 355645 320632 335049 -173006
832781842856791680 355950 320884 335003 -173024
832781842875003520 356143 321118 335019 -173043
832781842893215360 356167 321222 335051 -173041
832781842911427200 355979 321028 335065 -173039
832781842929639168 355694 320679 335057 -173024
832781842947851008 355192 320168 335045 -172974
832781842966062848 354616 319650 335105 -173054
832781842984274688 354064 319099 335049 -173036
832781843002486656 353686 318663 335000 -173029
832781843020698496 353244 318266 335028 -173060
832781843038910336 352995 318059 335071 -173058
832781843057122176 352951 317959 335070 -173038
832781843075334144 353032 318035 335007 -173081
832781843093545984 353174 318118 334995 -173098
832781843111757824 353451 318425 335079 -173093
832781843129969664 353743 318776 335061 -173059
832781843148181632 353995 319015 334986 -173086
832781843166393472 354229 319237 335027 -173094
832781843184605312 354383 319371 335033 -173078
832781843202817152 354468 319457 335030 -173053
832781843221029120 354520 319412 335068 -173074
832781843239240960 354541 319519 335044 -173067
832781843257452800 354590 319571 335017 -173089
832781843275664640 354669 319670 335034 -173050
832781843293876608 354937 319902 335050 -173073
832781843312088448 355135 320171 335005 -173110
832781843330300288 355403 320529 335037 -173099
832781843348512128 355766 320801 335085 -173005
832781843366723968 356021 321009 335032 -173089
832781843384935936 356096 321104 335020 -173079
832781843403147776 356112 321091 335066 -173011
832781843421359616 355795 320833 335029 -173055
832781843439571538 355379 320431 335032 -173058
832781843457784320 354814 319874 334990 -173086
832781843475997056 354308 319372 335032 -173043
832781843494209792 353799 318790 335034 -173031
832781843512422528 353524 318591 335054 -173025
832781843530635264 353121 318176 335063 -173020
832781843548848000 353007 318029 335071 -172972
832781843567060736 352974 317974 335033 -173006
832781843585273472 353122 318204 335057 -173024
832781843603486208 353396 318373 335061 -173014
832781843621698944 353663 318651 334997 -173072
832781843639911680 353900 318940 335027 -173045
832781843658124288 354143 319173 335031 -173031
832781843676337024 354334 319348 334972 -173072
832781843694549760 354447 319434 335039 -173047
832781843712762496 354424 319499 335000 -173090
832781843730975232 354552 319592 335081 -173038
832781843749187968 354582 319644 335112 -173079
832781843767400704 354712 319702 335104 -173026
832781843785613440 354851 319819 335075 -173030
832781843803826176 355059 320102 335033 -173043
832781843822038912 355335 320308 335028 -173045
832781843840251648 355635 320648 335086 -172999
832781843858464384 355913 320898 335067 -173034
832781843876677120 356163 321133 335101 -173052
832781843894889856 356115 321185 335066 -173080
832781843913102592 355997 321019 335083 -173045
832781843931315328 355612 320675 335095 -172999
832781843949528064 355077 320164 335044 -173070
832781843967740800 354598 319593 335082 -172994
832781843985953536 354018 319030 335003 -172986
832781844004166272 353525 318611 335074 -172996
832781844022379008 353186 318241 334993 -173019
832781844040591744 352992 318003 335040 -173042
832781844058804352 352977 318037 335118 -173027
832781844077017088 353021 318056 335060 -173058
832781844095229824 353285 318273 335080 -173020
832781844113442550 353563 318546 335028 -173021
832781844131654912 353836 318864 335084 -173034
832781844149867264 354120 319038 335075 -173033
832781844168079488 354238 319270 335085 -173061
832781844186291840 354368 319415 335024 -173081
832781844204504192 354551 319482 335081 -173010
832781844222716544 354543 319506 335083 -173024
832781844240928768 354550 319552 335094 -173027
832781844259141120 354584 319581 335032 -173050
832781844277353472 354744 319669 335033 -173042
832781844295565824 354957 319970 335088 -173053
832781844313778048 355254 320256 335125 -172968
832781844331990400 355520 320486 335099 -173070
832781844350202752 355872 320835 335122 -173018
832781844368415104 356087 321059 335049 -172976
832781844386627328 356192 321109 335039 -172989
832781844404839680 356064 321060 335065 -173056
832781844423052032 355766 320750 335047 -173044
832781844441264256 355327 320407 335066 -173025
832781844459476608 354814 319855 335046 -173006
832781844477688960 354231 319346 335050 -173073
832781844495901312 353742 318789 335033 -173046
832781844514113536 353323 318372 335028 -173041
832781844532325888 353064 318096 335083 -173026
832781844550538240 352959 317966 335049 -173064
832781844568750592 352926 318024 335023 -173062
832781844586962816 353114 318176 335013 -173009
832781844605175168 353360 318429 335058 -173065
832781844623387520 353666 318725 335035 -173033
832781844641599744 354006 319017 335076 -173009
832781844659812096 354186 319244 335025 -173044
832781844678024448 354315 319353 335067 -173065
832781844696236800 354419 319468 334972 -173086
832781844714449024 354491 319507 335022 -173100
832781844732661376 354495 319526 335039 -173111
832781844750873728 354544 319565 335070 -173009
832781844769086080 354609 319686 335006 -173070
832781844787298302 354845 319906 335016 -173022
832781844805511424 355048 320059 335002 -173096
832781844823724544 355361 320331 335012 -173035
832781844841937664 355710 320678 335019 -173079
832781844860150912 355971 320972 335018 -173069
832781844878364032 356209 321206 335056 -173057
832781844896577152 356136 321169 334991 -173027
832781844914790272 356007 320985 335058 -172990
832781844933003392 355589 320566 335040 -173050
832781844951216512 355088 320118 335058 -173042
832781844969429760 354518 319585 335053 -173030
832781844987642880 353940 318987 335052 -173093
832781845005856000 353556 318569 335066 -173078
832781845024069120 353159 318150 335046 -173020
832781845042282240 352984 317991 335059 -173044
832781845060495360 353000 317938 335111 -173034
832781845078708608 353081 318027 335101 -173002
832781845096921728 353297 318213 335117 -173069
832781845115134848 353511 318535 335073 -173043
832781845133347968 353782 318872 335056 -173019
832781845151561088 354096 319122 334984 -173065
832781845169774336 354327 319371 335079 -173061
832781845187987456 354400 319399 335039 -173063
832781845206200576 354476 319469 335068 -173061
832781845224413696 354499 319501 334980 -173033
832781845242626816 354556 319515 335037 -173056
832781845260839936 354581 319611 334988 -173073
832781845279053184 354674 319678 334963 -173024
832781845297266304 354924 319976 335039 -173075
832781845315479424 355244 320270 335086 -173080
832781845333692544 355554 320555 335062 -173048
832781845351905664 355877 320870 335034 -173042
832781845370118784 356080 321058 335041 -173050
832781845388332032 356213 321191 335061 -173026
832781845406545152 356051 321031 335068 -173011
832781845424758272 355743 320751 335112 -173081
832781845442971430 355341 320348 335059 -173086
832781845461184512 354838 319832 335121 -173048
832781845479397632 354232 319257 335009 -173045
832781845497610752 353747 318725 335018 -173045
832781845515824000 353359 318389 335078 -173059
832781845534037120 353018 318105 335023 -173070
832781845552250240 352935 317912 335035 -173056
832781845570463360 352973 317998 335051 -173071
832781845588676480 353159 318225 335076 -173069
832781845606889600 353382 318427 335063 -173028
832781845625102848 353646 318701 334999 -173026
832781845643315968 353946 319012 335040 -173057
832781845661529088 354137 319196 335034 -173074
832781845679742208 354344 319335 335050 -173082
832781845697955328 354461 319378 335054 -173098
832781845716168448 354450 319506 334998 -173075
832781845734381696 354459 319449 334972 -173075
832781845752594816 354545 319572 335029 -173030
832781845770807936 354609 319660 335000 -173035
832781845789021056 354783 319786 335002 -173068
832781845807234176 355039 320060 334976 -173004
832781845825447296 355357 320358 334982 -173036
832781845843660544 355729 320729 335054 -173048
832781845861873664 355946 321005 335048 -173063
832781845880086784 356165 321162 334990 -173063
832781845898299904 356105 321079 335067 -173051
832781845916513024 355850 320912 335111 -173034
832781845934726272 355542 320506 335074 -173069
832781845952939392 355042 320038 335091 -173053
832781845971152512 354445 319457 335063 -173088
832781845989365632 353891 318900 335046 -173073
832781846007578752 353425 318515 334948 -173123
832781846025791872 353126 318167 335013 -173080
832781846044005120 352894 318034 335027 -173067
832781846062218240 352992 317989 335027 -173028
832781846080431408 353095 318070 335077 -173037
832781846098644224 353275 318294 335056 -173025
832781846116857088 353616 318560 335060 -173045
832781846135070080 353881 318879 335060 -173043
832781846153282944 354082 319117 335029 -173030
832781846171495808 354375 319382 335125 -172991
832781846189708800 354458 319436 335059 -173009
832781846207921664 354518 319555 335075 -173012
832781846226134528 354457 319495 335039 -173059
832781846244347520 354525 319547 335005 -173048
832781846262560384 354632 319685 335043 -173017
832781846280773248 354746 319814 335092 -173006
832781846298986240 355016 320053 335066 -173014
832781846317199104 355224 320219 335042 -173074
832781846335411968 355583 320540 335047 -173055
832781846353624960 355899 320885 335006 -173075
832781846371837824 356145 321152 335010 -173071
832781846390050688 356133 321212 335070 -173088
832781846408263680 356037 321075 335064 -173061
832781846426476544 355725 320744 335001 -173055
832781846444689408 355243 320271 335000 -173079
832781846462902400 354718 319760 335024 -173056
832781846481115264 354226 319217 335075 -172993
832781846499328256 353673 318713 335078 -173048
832781846517541120 353267 318332 335083 -173061
832781846535753984 353023 318067 335076 -173044
832781846553966976 352978 318006 335085 -172986
832781846572179840 353017 318025 335096 -173043
832781846590392704 353150 318202 335032 -173080
832781846608605696 353440 318467 335077 -173103
832781846626818560 353697 318784 335046 -173034
832781846645031424 353999 319024 335080 -173008
832781846663244416 354225 319250 335081 -173024
832781846681457280 354361 319404 335103 -173053
832781846699670144 354473 319531 335091 -173014
832781846717883136 354480 319531 335059 -173056
832781846736096000 354578 319550 335086 -172993
832781846754308864 354614 319591 335090 -173050
832781846772521856 354703 319660 335043 -173057
832781846790734808 354860 319871 335081 -172980
832781846808947456 355142 320154 335002 -173067
832781846827160064 355497 320437 335007 -173072
832781846845372544 355738 320725 334955 -173055
832781846863585152 355993 321002 334995 -173060
832781846881797632 356185 321228 335058 -173007
832781846900010240 356119 321175 335045 -173051
832781846918222720 355893 320909 335029 -173046
832781846936435328 355511 320542 335006 -173041
832781846954647808 355025 320078 335024 -173050
832781846972860416 354441 319486 335020 -173054
832781846991072896 353924 318950 335096 -173003
832781847009285504 353426 318468 335058 -173064
832781847027497984 353152 318201 335091 -173036
832781847045710592 353008 317984 335079 -173072
832781847063923200 353002 317971 335039 -173089
832781847082135680 353083 318093 335057 -173098
832781847100348288 353339 318318 335095 -173086
832781847118560768 353584 318587 335113 -173061
832781847136773376 353812 318850 335050 -173072
832781847154985856 354060 319132 335037 -173059
832781847173198464 354280 319308 335040 -173060
832781847191410944 354419 319458 335054 -173058
832781847209623552 354469 319469 335017 -172986
832781847227836032 354408 319444 335016 -173031
832781847246048640 354494 319547 335032 -173038
832781847264261120 354679 319625 335066 -173025
832781847282473728 354756 319761 335035 -173074
832781847300686336 354958 319988 335049 -173055
832781847318898816 355287 320219 335050 -173043
832781847337111424 355579 320574 334965 -173053
832781847355323904 355961 320964 335086 -173007
832781847373536512 356091 321124 335074 -173053
832781847391748992 356157 321192 335043 -173004
832781847409961600 355982 321049 335053 -173054
832781847428174080 355705 320694 335081 -172974
832781847446386572 355233 320226 335081 -172975
832781847464599680 354647 319662 335054 -172958
832781847482812800 354219 319223 335028 -173059
832781847501025920 353666 318698 335062 -173025
832781847519239168 353268 318330 335054 -173053
832781847537452288 353035 318021 335001 -173033
832781847555665408 352940 317991 335025 -173033
832781847573878528 353016 318005 334989 -173006
832781847592091648 353199 318207 335062 -173014
832781847610304768 353434 318473 335025 -173054
832781847628518016 353759 318821 335086 -173019
832781847646731136 354056 319056 335039 -173045
832781847664944256 354257 319267 335076 -173022
832781847683157376 354418 319459 335114 -173022
832781847701370496 354419 319505 335059 -173042
832781847719583616 354501 319535 335096 -173046
832781847737796864 354555 319569 335125 -172979
832781847756009984 354650 319654 335084 -173033
832781847774223104 354754 319746 335160 -172979
832781847792436224 354915 319887 335082 -173064
832781847810649344 355134 320198 335079 -173045
832781847828862592 355488 320489 335064 -173021
832781847847075712 355824 320840 335063 -173054
832781847865288832 356077 321075 335026 -173036
832781847883501952 356198 321169 335061 -173037
832781847901715072 356126 321118 335067 -173004
832781847919928192 355844 320824 335028 -173075
832781847938141440 355481 320419 335045 -173078
832781847956354560 354897 319980 335048 -173071
832781847974567680 354325 319385 334989 -173102
832781847992780800 353873 318890 335003 -173040
832781848010993920 353407 318449 335061 -173062
832781848029207040 353151 318176 335062 -173030
832781848047420288 352963 317980 335046 -173062
832781848065633408 353007 317935 335081 -173035
832781848083846528 353119 318116 335037 -173031
832781848102059648 353355 318305 335048 -173078
832781848120272842 353661 318628 335107 -173073
832781848138486016 353928 318857 335071 -173086
832781848156699136 354133 319145 335048 -173111
832781848174912256 354342 319308 335044 -173078
832781848193125504 354418 319402 334998 -173031
832781848211338624 354533 319516 335080 -173094
832781848229551744 354543 319499 335088 -173060
832781848247764864 354569 319571 335097 -173034
832781848265977984 354634 319628 335033 -173039
832781848284191104 354770 319810 335065 -173026
832781848302404352 355031 320080 335050 -173046
832781848320617472 355333 320356 335037 -173018
832781848338830592 355620 320646 335034 -173045
832781848357043712 355919 320909 335046 -173068
832781848375256832 356080 321133 335080 -173031
832781848393469952 356162 321168 335102 -172997
832781848411683200 356033 321045 335143 -173028
832781848429896320 355673 320684 335103 -173072
832781848448109440 355225 320202 335059 -173053
832781848466322560 354651 319669 335110 -173056
832781848484535680 354078 319115 335084 -173109
832781848502748928 353723 318731 335073 -173061
832781848520962048 353227 318367 335081 -173004
832781848539175168 353023 318104 335099 -173005
832781848557388288 352891 317900 335087 -173078
832781848575601408 353049 318000 335066 -173054
832781848593814528 353238 318213 335086 -173059
832781848612027776 353509 318501 335026 -173011
832781848630240896 353786 318793 335098 -173014
832781848648454016 354091 319014 335067 -172980
832781848666667136 354266 319211 335044 -173013
832781848684880256 354432 319431 335053 -173011
832781848703093376 354560 319489 335073 -173056
832781848721306624 354590 319580 335095 -173055
832781848739519744 354610 319592 335050 -172990
832781848757732864 354646 319629 335051 -173044
832781848775945984 354784 319774 335085 -173044
832781848794159112 354907 319929 335078 -173040
832781848812372224 355186 320140 335056 -173039
832781848830585344 355465 320477 335051 -173071
832781848848798464 355772 320831 335047 -173046
832781848867011712 356061 321088 335116 -173043
832781848885224832 356159 321218 335048 -173077
832781848903437952 356079 321140 335077 -173071
832781848921651072 355841 320835 335078 -173077
832781848939864192 355447 320420 335064 -173030
832781848958077312 354853 319890 335112 -173022
832781848976290560 354292 319338 335091 -173068
832781848994503680 353791 318831 335104 -173034
832781849012716800 353443 318519 335091 -173029
832781849030929920 353129 318070 335066 -173065
832781849049143040 352967 317921 335065 -173090
832781849067356160 353002 318004 335057 -173038
832781849085569408 353091 318088 335031 -173080
832781849103782528 353374 318333 335065 -173107
832781849121995648 353647 318583 335012 -173031
832781849140208768 353986 319004 335086 -173023
832781849158421888 354158 319219 335056 -173085
832781849176635136 354334 319347 335029 -173054
832781849194848256 354420 319481 335033 -173057
832781849213061376 354490 319512 335043 -173058
832781849231274496 354514 319558 335044 -173098
832781849249487616 354573 319567 335029 -173043
832781849267700736 354686 319654 335112 -173029
832781849285913984 354775 319777 335053 -173088
832781849304127104 355050 320017 335058 -173111
832781849322340224 355332 320248 335017 -173098
832781849340553344 355697 320672 335099 -173051
832781849358766464 355911 320905 334945 -173172
832781849376979584 356106 321147 335047 -173078
832781849395192832 356176 321173 335075 -173018
832781849413405952 355985 320913 335073 -173043
832781849431619072 355556 320605 335049 -173046
832781849449832240 355122 320140 335071 -173039
832781849468045312 354562 319587 335062 -173014
832781849486258432 354081 319077 335104 -173006
832781849504471552 353605 318595 335093 -173029
832781849522684800 353339 318359 335138 -173042
832781849540897920 353053 318023 335095 -173100
832781849559111040 353061 318015 335080 -173059
832781849577324160 353087 318113 335124 -173035
832781849595537280 353290 318328 335084 -173038
832781849613750400 353570 318565 335082 -173071
832781849631963648 353833 318864 335000 -173065
832781849650176768 354072 319152 335066 -173026
832781849668389888 354321 319329 335136 -173026
832781849686603008 354426 319453 335110 -173042
832781849704816128 354467 319544 335114 -173048
832781849723029248 354544 319580 335083 -173034
832781849741242496 354579 319600 335086 -173003
832781849759455616 354632 319626 335088 -173086
832781849777668736 354737 319731 335078 -173064
832781849795881856 354941 319982 335050 -173102
832781849814094976 355164 320197 335093 -173057
832781849832308096 355504 320504 335058 -173027
832781849850521344 355866 320862 335092 -173073
832781849868734464 356033 321133 335070 -173087
832781849886947584 356162 321170 335033 -173044
832781849905160704 356125 321111 335079 -172993
832781849923373824 355823 320781 335034 -173092
832781849941587072 355428 320413 335064 -173069
832781849959800192 354904 319894 335073 -173048
832781849978013312 354471 319496 335069 -173060
832781849996226432 353830 318839 335028 -172984
832781850014439552 353398 318449 335087 -173065
832781850032652672 353119 318158 335026 -173028
832781850050865920 352956 317982 335008 -173071
832781850069079040 352961 318027 335033 -173121
832781850087292160 353160 318189 335062 -173012
832781850105505280 353443 318440 335085 -173046
832781850123718400 353739 318710 335064 -173037
832781850141931644 354036 319007 335096 -173038
832781850160144768 354234 319270 335120 -172989
832781850178357888 354389 319428 335063 -173065
832781850196571008 354536 319539 335016 -173030
832781850214784256 354519 319556 335082 -173011
832781850232997376 354542 319534 335079 -173011
832781850251210496 354534 319650 335059 -173029
832781850269423616 354687 319774 335104 -173070
832781850287636736 354912 319902 335036 -173091
832781850305849856 355108 320168 335062 -173025
832781850324063104 355464 320402 335081 -173039
832781850342276224 355722 320714 335039 -173053
832781850360489344 356065 321019 335058 -173125
832781850378702464 356220 321174 335042 -173053
832781850396915584 356155 321104 335036 -173077
832781850415128704 356014 321016 335042 -173050
832781850433341952 355621 320599 335073 -173035
832781850451555072 355163 320088 335023 -173063
832781850469768192 354554 319533 335019 -173087
832781850487981312 354144 319152 334983 -173055
832781850506194432 353628 318598 334979 -173065
832781850524407680 353229 318182 335027 -173085
832781850542620800 353014 318063 335019 -173047
832781850560833920 352961 318002 335047 -173035
832781850579047040 353065 318082 335019 -173086
832781850597260160 353283 318323 335077 -173058
832781850615473280 353569 318617 335036 -173068
832781850633686528 353899 318933 335057 -173012
832781850651899648 354116 319175 335039 -173087
832781850670112768 354339 319305 335057 -173085
832781850688325888 354443 319446 334998 -173077
832781850706539008 354511 319479 335049 -173053
832781850724752128 354551 319538 335034 -173106
832781850742965376 354571 319540 335025 -173045
832781850761178496 354648 319676 335058 -173057
832781850779391616 354757 319707 335067 -173102
832781850797604736 355008 320013 335052 -173075
832781850815817856 355179 320243 335025 -173122
832781850834030976 355603 320560 334982 -173067
832781850852244198 355925 320932 335053 -173017
832781850870456448 356165 321148 335057 -173079
832781850888668672 356241 321229 335012 -173065
832781850906881024 356114 321113 335050 -173061
832781850925093248 355806 320796 335014 -173036
832781850943305472 355365 320372 335068 -173034
832781850961517824 354805 319792 335102 -173055
832781850979730048 354234 319229 335047 -173017
832781850997942400 353833 318824 335043 -173019
832781851016154624 353324 318413 335028 -173047
832781851034366848 353113 318136 335098 -173053
832781851052579200 352980 317977 335058 -173070
832781851070791424 353019 317998 335039 -173075
832781851089003648 353210 318190 335026 -173086
832781851107216000 353447 318408 334995 -173072
832781851125428224 353757 318705 335008 -173008
832781851143640448 354054 319043 335043 -173013
832781851161852800 354208 319223 334999 -173062
832781851180065024 354425 319441 335061 -173039
832781851198277376 354527 319470 335023 -173061
832781851216489600 354586 319555 335046 -173045
832781851234701824 354577 319614 335063 -172984
832781851252914176 354617 319632 335006 -173025
832781851271126400 354714 319718 335078 -173025
832781851289338624 354917 319918 335111 -173023
832781851307550976 355188 320145 335027 -173054
832781851325763200 355437 320462 335046 -173080
832781851343975424 355776 320781 335096 -173048
832781851362187776 356082 321033 335058 -173058
832781851380400000 356228 321221 335054 -173024
832781851398612352 356182 321265 335079 -173060
832781851416824576 355976 320962 335057 -173061
832781851435036800 355583 320540 335035 -173045
832781851453249152 355041 320078 335033 -173028
832781851471461376 354499 319558 335020 -173063
832781851489673666 353917 319040 335017 -173082
832781851507886848 353557 318653 335047 -173138
832781851526099968 353203 318292 335049 -173143
832781851544313088 353003 318066 335044 -173090
832781851562526336 352983 317982 335045 -173065
832781851580739456 353116 318127 335035 -173025
832781851598952576 353344 318294 335057 -173089
832781851617165696 353637 318585 335042 -173061
832781851635378816 353978 318909 335109 -173035
832781851653591936 354157 319156 335033 -173098
832781851671805184 354423 319343 335149 -173050
832781851690018304 354501 319473 335071 -173025
832781851708231424 354502 319505 335020 -173045
832781851726444544 354537 319522 335050 -173020
832781851744657664 354562 319580 335053 -173073
832781851762870784 354706 319667 335065 -172994
832781851781084032 354786 319776 335028 -173035
832781851799297152 355045 320039 335030 -173053
832781851817510272 355364 320345 335099 -173039
832781851835723392 355665 320648 335047 -173076
832781851853936512 355937 320977 335037 -173099
832781851872149760 356185 321181 335075 -173040
832781851890362880 356265 321228 335020 -173088
832781851908576000 356169 321128 335073 -173006
832781851926789120 355845 320738 335025 -172999
832781851945002240 355333 320320 335012 -173070
832781851963215360 354803 319809 335045 -173047
832781851981428608 354235 319262 335048 -173004
832781851999641728 353697 318729 335059 -173060
832781852017854848 353461 318458 335040 -173070
832781852036067968 353099 318173 335015 -173071
832781852054281088 353008 318088 335049 -173001
832781852072494208 352956 318067 335029 -173055
832781852090707456 353212 318255 335102 -173021
832781852108920576 353485 318534 335130 -173102
832781852127133696 353756 318817 335048 -173010
832781852145346816 354009 319106 335097 -173054
832781852163559936 354264 319253 335086 -173071
832781852181773056 354469 319422 335054 -173020
832781852199986220 354532 319519 335099 -173019
832781852218198528 354551 319519 335068 -173052
832781852236410880 354636 319623 335082 -173000
832781852254623104 354583 319601 335100 -173072
832781852272835456 354724 319758 335075 -173039
832781852291047808 354919 319928 335045 -173078
832781852309260160 355166 320203 335125 -173046
832781852327472384 355522 320515 335019 -173047
832781852345684736 355828 320811 335059 -173000
832781852363897088 356107 321116 335151 -173051
832781852382109440 356203 321310 335158 -173033
832781852400321664 356187 321168 335110 -173054
832781852418534016 355927 320936 335076 -173062
832781852436746368 355604 320631 335080 -173063
832781852454958720 355006 320050 335002 -173087
832781852473170944 354463 319461 335086 -173120
832781852491383296 353925 318940 335098 -173106
832781852509595648 353491 318480 335041 -173098
832781852527807872 353285 318319 335053 -173046
832781852546020224 353106 318073 335051 -173001
832781852564232576 353034 318002 335039 -173068
832781852582444928 353086 318118 335066 -173059
832781852600657152 353337 318346 335067 -173057
832781852618869504 353703 318680 335109 -173030
832781852637081856 353961 319005 335091 -173053
832781852655294208 354202 319262 335070 -173017
832781852673506432 354319 319353 335008 -173075
832781852691718784 354509 319490 334989 -173068
832781852709931136 354503 319483 335027 -173052
832781852728143360 354556 319553 335044 -173031
832781852746355712 354598 319615 335062 -173010
832781852764568064 354646 319625 335026 -173077
832781852782780416 354822 319781 335071 -172996
832781852800992640 355033 320054 335001 -173070
832781852819204992 355353 320321 335037 -173059
832781852837417344 355706 320721 335095 -173030
832781852855629696 355959 320980 335116 -173026
832781852873841972 356173 321223 335110 -173048
832781852892055296 356259 321201 335113 -173020
832781852910268672 356105 321116 335090 -173064
832781852928481920 355767 320811 335061 -173069
832781852946695168 355300 320273 335091 -173052
832781852964908544 354735 319726 335048 -173048
832781852983121920 354113 319185 335051 -173055
832781853001335168 353669 318683 335079 -173053
832781853019548416 353281 318235 335093 -173104
832781853037761792 353061 317988 335014 -173065
832781853055975168 352986 317923 335059 -173055
832781853074188416 353093 318058 335101 -173012
832781853092401664 353258 318211 335031 -173064
832781853110615040 353505 318512 335006 -173064
832781853128828416 353805 318767 334967 -173072
832781853147041664 354051 319127 335062 -173042
832781853165254912 354260 319314 335041 -173067
832781853183468288 354413 319467 335064 -173080
832781853201681664 354519 319599 335137 -173007
832781853219894912 354587 319614 335078 -173022
832781853238108160 354609 319612 335073 -172991
832781853256321536 354623 319643 335086 -173047
832781853274534912 354795 319799 335119 -172997
832781853292748160 354959 319981 335147 -173028
832781853310961408 355205 320265 335110 -173005
832781853329174784 355448 320529 335039 -173054
832781853347388160 355866 320874 335061 -173086
832781853365601408 356118 321108 335062 -173061
832781853383814656 356202 321296 335061 -173037
832781853402028032 356166 321178 335091 -173016
832781853420241408 355895 320980 335037 -173024
832781853438454656 355507 320549 335066 -173020
832781853456667904 354983 320027 335049 -173060
832781853474881280 354447 319507 335114 -173020
832781853493094656 354050 319138 335133 -173056
832781853511307904 353572 318512 335104 -173061
832781853529521204 353241 318203 335054 -173110
832781853547734912 353051 317999 335056 -173079
832781853565948672 352993 318018 335022 -173085
832781853584162560 353121 318177 335060 -173028
832781853602376320 353381 318425 335064 -173043
832781853620590208 353719 318715 335096 -173010
832781853638803968 353952 318980 335058 -173011
832781853657017856 354288 319229 335071 -173057
832781853675231616 354439 319410 335103 -173003
832781853693445504 354547 319510 335124 -172988
832781853711659264 354604 319539 335128 -173017
832781853729873152 354603 319533 335071 -173005
832781853748086912 354642 319550 334991 -173053
832781853766300800 354731 319700 335054 -173063
832781853784514560 354903 319856 335042 -173068
832781853802728448 355131 320065 335064 -173035
832781853820942208 355436 320423 335139 -173000
832781853839156096 355725 320693 335127 -173062
832781853857369856 355996 321002 335088 -173003
832781853875583744 356238 321226 335119 -173045
832781853893797504 356305 321275 335113 -173027
832781853912011264 356128 321069 335115 -173017
832781853930225152 355757 320669 335133 -173010
832781853948438912 355287 320222 335156 -173007
832781853966652800 354752 319740 335112 -173022
832781853984866560 354187 319148 335050 -173034
832781854003080448 353798 318729 335079 -173056
832781854021294208 353309 318290 335080 -173107
832781854039508096 353082 318020 335069 -173045
832781854057721856 353003 317968 335092 -173039
832781854075935744 353112 318025 334998 -173040
832781854094149504 353298 318302 335035 -173050
832781854112363392 353620 318586 335076 -173077
832781854130577152 353857 318882 335073 -173117
832781854148791040 354106 319097 335026 -173044
832781854167004800 354291 319322 335015 -173061
832781854185218746 354410 319424 335033 -173092
832781854203431040 354554 319534 335092 -173019
832781854221643392 354619 319622 335119 -173006
832781854239855744 354572 319594 335109 -173043
832781854258068096 354603 319620 335093 -173052
832781854276280448 354742 319773 335103 -173000
832781854294492800 355000 319957 335078 -173048
832781854312705152 355290 320206 335065 -173060
832781854330917504 355533 320559 335067 -173036
832781854349129856 355887 320843 335070 -173057
832781854367342336 356121 321124 335061 -173034
832781854385554688 356285 321239 335022 -173019
832781854403767040 356221 321167 335064 -172996
832781854421979392 355906 320918 335066 -173017
832781854440191744 355501 320463 335061 -173054
832781854458404096 354931 319918 335070 -173039
832781854476616448 354356 319400 335066 -173021
832781854494828800 353854 318879 335037 -173085
832781854513041152 353510 318455 335078 -173092
832781854531253504 353135 318137 335065 -173054
832781854549465856 353004 318062 335100 -173043
832781854567678208 353032 318017 335135 -173055
832781854585890560 353181 318178 335144 -173030
832781854604102912 353459 318430 335050 -173100
832781854622315264 353693 318734 335008 -173095
832781854640527616 354065 319001 335036 -173017
832781854658740096 354257 319196 335039 -173029
832781854676952448 354428 319412 335078 -173025
832781854695164800 354539 319552 335060 -173044
832781854713377152 354554 319558 335033 -173088
832781854731589504 354637 319615 335096 -173011
832781854749801856 354682 319594 334985 -173036
832781854768014208 354743 319701 335073 -173020
832781854786226560 354886 319888 335111 -173075
832781854804438912 355078 320073 335056 -173064
832781854822651264 355437 320372 335056 -173053
832781854840863616 355664 320698 335037 -173104
832781854859075968 356007 320992 335061 -173003
832781854877288320 356268 321257 335069 -173014
832781854895500774 356233 321239 335029 -173038
832781854913714816 356079 321033 335129 -173008
832781854931928832 355749 320696 335092 -173028
832781854950142848 355191 320180 335088 -173052
832781854968356736 354640 319671 335079 -173067
832781854986570752 354118 319193 335114 -172995
832781855004784768 353570 318584 335051 -173091
832781855022998784 353266 318288 335105 -173037
832781855041212800 353008 318019 335052 -173067
832781855059426688 352976 318018 335013 -173087
832781855077640704 353055 318098 335014 -173037
832781855095854720 353299 318263 335044 -173065
832781855114068736 353593 318588 335056 -173002
832781855132282752 353853 318814 334995 -173108
832781855150496640 354105 319079 335065 -173081
832781855168710656 354303 319314 335097 -173042
832781855186924672 354448 319472 335057 -173021
832781855205138688 354522 319580 335103 -173048
832781855223352704 354548 319558 335039 -173043
832781855241566592 354595 319606 335057 -173074
832781855259780608 354665 319694 335101 -173062
832781855277994624 354808 319847 335156 -173044
832781855296208640 354964 320001 335115 -173043
832781855314422656 355264 320238 335090 -173054
832781855332636544 355591 320514 335057 -173001
832781855350850560 355881 320889 335092 -173048
832781855369064576 356175 321123 335044 -173014
832781855387278592 356199 321254 335092 -173010
832781855405492608 356177 321155 335063 -173058
832781855423706496 355841 320870 335048 -173038
832781855441920512 355392 320452 335056 -173016
832781855460134528 354888 319949 335127 -173001
832781855478348544 354459 319468 335081 -173050
832781855496562560 353889 318896 335095 -173063
832781855514776448 353411 318448 335060 -173087
832781855532990464 353112 318103 335058 -173045
832781855551204420 353013 317997 335043 -173008
832781855569418368 353017 318088 335067 -173061
832781855587632256 353173 318241 335100 -173011
832781855605846272 353450 318439 335069 -173046
832781855624060160 353731 318721 335083 -173034
832781855642274048 354007 318992 335070 -173076
832781855660487936 354279 319253 335086 -173036
832781855678701952 354457 319433 335091 -172993
832781855696915840 354567 319546 335099 -173013
832781855715129728 354585 319499 335105 -173054
832781855733343744 354596 319573 335137 -173051
832781855751557632 354624 319644 335068 -173020
832781855769771520 354675 319732 335093 -173024
832781855787985408 354921 319891 335062 -173035
832781855806199424 355132 320110 335019 -173054
832781855824413312 355460 320422 335084 -173050
832781855842627200 355772 320782 335102 -173036
832781855860841216 356049 321054 335034 -173012
832781855879055104 356218 321239 335040 -173057
832781855897268992 356205 321209 335062 -173072
832781855915482880 355976 321036 335069 -173064
832781855933696896 355609 320655 335084 -173053
832781855951910784 355148 320082 335064 -173013
832781855970124672 354570 319489 335065 -173069
832781855988338688 354091 319115 335110 -173067
832781856006552576 353552 318565 335033 -173029
832781856024766464 353276 318225 335051 -173002
832781856042980352 352996 317995 335023 -173057
832781856061194368 353037 317982 335101 -173021
832781856079408256 353131 318101 335051 -173011
832781856097622144 353283 318275 335067 -173035
832781856115836160 353573 318596 335069 -173055
832781856134050048 353898 318874 335048 -172992
832781856152263936 354139 319103 335061 -173026
832781856170477952 354343 319356 335090 -173059
832781856188691840 354458 319449 335069 -173081
832781856206905728 354528 319603 335101 -173081
832781856225119616 354609 319601 335128 -173089
832781856243333632 354604 319548 335056 -173120
832781856261547492 354678 319663 335096 -173055
832781856279759872 354759 319792 335057 -173054
832781856297972224 354897 320007 335063 -173071
832781856316184448 355222 320246 335019 -173034
832781856334396800 355569 320617 335040 -173064
832781856352609024 355904 320952 335016 -173119
832781856370821376 356107 321229 335040 -173078
832781856389033600 356143 321242 334968 -173110
832781856407245952 356033 321122 335060 -173095
832781856425458176 355732 320781 334981 -173111
832781856443670528 355340 320286 335008 -173120
832781856461882880 354778 319795 335041 -173116
832781856480095104 354194 319216 335012 -173073
832781856498307456 353736 318728 335027 -173100
832781856516519680 353283 318313 335049 -173077
832781856534732032 353058 318063 335057 -173103
832781856552944256 352935 318008 335050 -173052
832781856571156608 353009 317990 335044 -173044
832781856589368832 353306 318171 335070 -172993
832781856607581184 353454 318390 335069 -173095
832781856625793408 353736 318727 335044 -173072
832781856644005760 354075 319019 335057 -173090
832781856662218112 354330 319296 335096 -173036
832781856680430336 354399 319384 335048 -173063
832781856698642688 354468 319500 335023 -173107
832781856716854912 354491 319538 335018 -173113
832781856735067264 354612 319623 335104 -173045
832781856753279488 354592 319583 335017 -173085
832781856771491840 354774 319707 335062 -173067
832781856789704064 354925 319905 335042 -173072
832781856807916416 355195 320174 335065 -173112
832781856826128768 355464 320417 335043 -173089
832781856844340992 355768 320713 335003 -173061
832781856862553344 356048 321060 335039 -173031
832781856880765568 356280 321241 335087 -173018
832781856898977920 356205 321175 335086 -173080
832781856917190102 355949 320954 335043 -173079
832781856935403008 355584 320575 335094 -173028
832781856953615872 355098 320072 335050 -173089
832781856971828736 354544 319548 335088 -173069
832781856990041728 354061 319034 335136 -173023
832781857008254592 353539 318599 335104 -173019
832781857026467456 353263 318249 335075 -172984
832781857044680320 353111 318076 335079 -173000
832781857062893184 353003 318016 335039 -173058
832781857081106176 353227 318154 335101 -173005
832781857099319040 353400 318418 335104 -173025
832781857117531904 353660 318674 335109 -173063
832781857135744768 354012 318977 335167 -172989
832781857153957632 354272 319198 335086 -173081
832781857172170496 354413 319360 335053 -173105
832781857190383488 354526 319527 335107 -173065
832781857208596352 354525 319573 335066 -173098
832781857226809216 354546 319616 335064 -173045
832781857245022080 354599 319586 335114 -173028
832781857263234944 354672 319657 335061 -173071
832781857281447936 354775 319870 335074 -173095
832781857299660800 355006 320024 335033 -173115
832781857317873664 355290 320285 335054 -173080
832781857336086528 355659 320668 335115 -173085
832781857354299392 355952 320931 335046 -173063
832781857372512384 356173 321203 335048 -173055
832781857390725248 356301 321260 335134 -173070
832781857408938112 356098 321101 335115 -173050
832781857427150976 355780 320769 335078 -173042
832781857445363840 355294 320302 335084 -173034
832781857463576704 354716 319768 335080 -173061
832781857481789696 354227 319202 335042 -173061
832781857500002560 353774 318724 335076 -173037
832781857518215424 353347 318306 335023 -173117
832781857536428288 353105 318093 335080 -173019
832781857554641152 353023 317986 335073 -173010
832781857572854074 353040 318058 335059 -173041
832781857591066624 353276 318215 335041 -173036
832781857609279232 353535 318533 335120 -173046
832781857627491712 353834 318776 335070 -173141
832781857645704320 354033 318985 335020 -173064
832781857663916928 354326 319270 335044 -173013
832781857682129408 354428 319413 335051 -173097
832781857700342016 354539 319569 335040 -173110
832781857718554624 354618 319566 335039 -173036
832781857736767104 354590 319557 335054 -173079
832781857754979712 354712 319615 335092 -173106
832781857773192320 354790 319717 335078 -173038
832781857791404800 354989 319883 335074 -173058
832781857809617408 355245 320180 335115 -173051
832781857827830016 355512 320534 335082 -173108
832781857846042496 355838 320860 335052 -173046
832781857864255104 356086 321091 335016 -173024
832781857882467712 356247 321282 335083 -173019
832781857900680192 356149 321159 335096 -173052
832781857918892800 355933 320997 335129 -173023
832781857937105408 355474 320604 335092 -173072
832781857955317888 355021 320024 335092 -173004
832781857973530496 354681 319653 335142 -173010
832781857991743104 353997 319026 335108 -173065
832781858009955584 353532 318552 335100 -173029
832781858028168192 353267 318232 335113 -173037
832781858046380800 353060 318076 335085 -173027
832781858064593280 353081 318024 335126 -173023
832781858082805888 353168 318196 335036 -173071
832781858101018496 353384 318426 335107 -173016
832781858119230976 353677 318717 335082 -173046
832781858137443584 353916 319032 335059 -173025
832781858155656192 354256 319185 335053 -173014
832781858173868672 354422 319354 335056 -173070
832781858192081280 354563 319535 335081 -173022
832781858210293888 354565 319568 335091 -173034
832781858228506368 354563 319628 335051 -173024
832781858246718982 354653 319660 335054 -173071
832781858264932096 354670 319661 335044 -173070
832781858283145216 354837 319856 335059 -173060
832781858301358336 355107 320064 335082 -173053
832781858319571584 355405 320267 335013 -173050
832781858337784704 355688 320623 335066 -173040
832781858355997824 355981 320948 335028 -173043
832781858374210944 356250 321206 335087 -172999
832781858392424064 356260 321231 335079 -173026
832781858410637184 356106 321108 335095 -173037
832781858428850432 355794 320762 335128 -173018
832781858447063552 355288 320272 335096 -172976
832781858465276672 354659 319735 334999 -173087
832781858483489792 354294 319232 335101 -173008
832781858501702912 353716 318716 335070 -173036
832781858519916032 353286 318312 335100 -173076
832781858538129280 353068 318111 335111 -173042
832781858556342400 353018 317988 335090 -173085
832781858574555520 353102 318093 335148 -173052
832781858592768640 353263 318251 335098 -173055
832781858610981760 353487 318511 335071 -173075
832781858629195008 353810 318753 335040 -173088
832781858647408128 354094 319117 335086 -173033
832781858665621248 354293 319253 335062 -173080
832781858683834368 354503 319471 335095 -173063
832781858702047488 354558 319566 335058 -173056
832781858720260608 354588 319578 335053 -173095
832781858738473856 354635 319625 335103 -173024
832781858756686976 354695 319665 335039 -173054
832781858774900096 354811 319777 335082 -173024
832781858793113216 354959 319968 335111 -173033
832781858811326336 355259 320268 335069 -173065
832781858829539456 355534 320543 335054 -173062
832781858847752704 355788 320831 335131 -173019
832781858865965824 356112 321128 335102 -173029
832781858884178944 356283 321260 335045 -173051
832781858902392064 356132 321157 335034 -173029
832781858920605252 355928 320946 335051 -173018
832781858938817792 355519 320485 335112 -173051
832781858957030272 354947 319947 335084 -172978
832781858975242752 354380 319415 335056 -173025
832781858993455232 353919 318838 335086 -173010
832781859011667712 353447 318460 335056 -173100
832781859029880192 353182 318136 335112 -173040
832781859048092672 352980 317967 335023 -173018
832781859066305152 352954 318056 335086 -173026
832781859084517760 353123 318190 335096 -173026
832781859102730240 353374 318418 335063 -173067
832781859120942720 353701 318666 335050 -173028
832781859139155200 353985 318956 335064 -173050
832781859157367680 354231 319228 335050 -173076
832781859175580160 354425 319355 335062 -173082
832781859193792640 354524 319474 335059 -173007
832781859212005120 354552 319536 335079 -173054
832781859230217600 354541 319499 334983 -173038
832781859248430080 354638 319591 335011 -173060
832781859266642560 354714 319683 335051 -173068
832781859284855040 354905 319846 335105 -173053
832781859303067520 355105 320052 335073 -173117
832781859321280000 355418 320355 335087 -173061
832781859339492480 355694 320682 335066 -173096
832781859357704960 356031 320963 335102 -173039
832781859375917568 356216 321246 335104 -173080
832781859394130048 356197 321248 335109 -173061
832781859412342528 356064 321079 335066 -173072
832781859430555008 355687 320663 334996 -173104
832781859448767488 355215 320215 335011 -173102
832781859466979968 354629 319669 335069 -173081
832781859485192448 354108 319199 335088 -173047
832781859503404928 353640 318733 335165 -173018
832781859521617408 353290 318296 335096 -173020
832781859539829888 353035 318093 335118 -173051
832781859558042340 352966 317953 335014 -173082
832781859576254720 353025 318093 334982 -173100
832781859594467072 353256 318331 335020 -173113
832781859612679552 353603 318617 335067 -173055
832781859630891904 353798 318778 335049 -173058
832781859649104256 354110 319089 335052 -172989
832781859667316736 354314 319300 335062 -173046
832781859685529088 354476 319428 335066 -173033
832781859703741568 354590 319523 335103 -173058
832781859721953920 354500 319561 335030 -173121
832781859740166272 354598 319618 335028 -173098
832781859758378752 354675 319590 335056 -173124
832781859776591104 354820 319794 335073 -173027
832781859794803456 355002 319980 335041 -173095
832781859813015936 355300 320239 335058 -173027
832781859831228288 355540 320540 335074 -173073
832781859849440768 355865 320807 335000 -173120
832781859867653120 356154 321112 335084 -173023
832781859885865472 356276 321222 335098 -173018
832781859904077952 356164 321185 335070 -173043
832781859922290304 355897 320885 335056 -173011
832781859940502656 355441 320424 335128 -173046
832781859958715136 354952 319931 335134 -172996
832781859976927488 354419 319367 335158 -173092
832781859995139840 353827 318783 335056 -173070
832781860013352320 353406 318440 335051 -173055
832781860031564672 353224 318279 335041 -173069
832781860049777152 353050 318075 334993 -173073
832781860067989504 353055 318075 335032 -173102
832781860086201856 353214 318217 335093 -173078
832781860104414336 353326 318411 335096 -173097
832781860122626688 353708 318698 335109 -173058
832781860140839040 354034 318987 335081 -173029
832781860159051520 354240 319253 335057 -173064
832781860177263872 354391 319421 335035 -173089
832781860195476224 354519 319530 335074 -173051
832781860213688704 354578 319578 335093 -173023
832781860231901056 354544 319585 335068 -173088
832781860250113536 354580 319638 335052 -173133
832781860268325902 354703 319717 335156 -173062
832781860286537472 354869 319868 335054 -173035
832781860304749056 355067 320062 335067 -173031
832781860322960768 355438 320433 335088 -173040
832781860341172352 355817 320726 335050 -173031
832781860359383936 355985 321014 335088 -173054
832781860377595520 356199 321230 335070 -173113
832781860395807232 356210 321182 335044 -173092
832781860414018816 356017 321004 335113 -173079
832781860432230400 355650 320642 335065 -173026
832781860450441984 355196 320164 335042 -173081
832781860468653696 354634 319580 334996 -173075
832781860486865280 354044 319013 335001 -173111
832781860505076864 353592 318550 335035 -173099
832781860523288448 353229 318243 334989 -173070
832781860541500160 353025 318011 334979 -173072
832781860559711744 352998 317978 335020 -173061
832781860577923328 353025 318080 335030 -173077
832781860596134912 353340 318298 335090 -173088
832781860614346624 353558 318535 335067 -173102
832781860632558208 353886 318827 335052 -173087
832781860650769792 354102 319083 335025 -173059
832781860668981376 354269 319291 335020 -173086
832781860687193088 354440 319415 335056 -173085
832781860705404672 354481 319514 335046 -173106
832781860723616256 354611 319574 335099 -173042
832781860741827840 354581 319538 335019 -173119
832781860760039552 354623 319601 334968 -173131
832781860778251136 354814 319779 335067 -173128
832781860796462720 354999 320008 335079 -173075
832781860814674304 355280 320316 335052 -173065
832781860832886016 355608 320560 335077 -173105
832781860851097600 355886 320899 335100 -173064
832781860869309184 356169 321165 335113 -173060
832781860887520768 356225 321211 335081 -173050
832781860905732480 356116 321152 335118 -173095
832781860923944098 355828 320890 335124 -173080
832781860942155392 355370 320386 335103 -173120
832781860960366720 354900 319895 335076 -173045
832781860978578176 354299 319376 335090 -173064
832781860996789504 353768 318779 335036 -173099
832781861015000832 353391 318391 335050 -173054
832781861033212160 353040 318105 335088 -173097
832781861051423616 352976 318039 335091 -173020
832781861069634944 353050 318027 335082 -173009
832781861087846272 353183 318219 335076 -173045
832781861106057600 353395 318444 335029 -173091
832781861124269056 353736 318725 335079 -173057
832781861142480384 354020 319011 335059 -173055
832781861160691712 354217 319242 335019 -173065
832781861178903040 354396 319455 335094 -173090
832781861197114496 354552 319534 335064 -173073
832781861215325824 354568 319544 335108 -173039
832781861233537152 354525 319526 335048 -173099
832781861251748608 354657 319639 335131 -173001
832781861269959936 354787 319687 335079 -173045
832781861288171264 354987 319952 335084 -172985
832781861306382592 355194 320177 335076 -173033
832781861324594048 355466 320401 335128 -173024
832781861342805376 355729 320759 335120 -173076
832781861361016704 356078 321040 335121 -173063
832781861379228032 356277 321255 335084 -173038
832781861397439488 356259 321231 335073 -173098
832781861415650816 356088 321074 335081 -173073
832781861433862144 355664 320661 335053 -173078
832781861452073472 355195 320129 334983 -173056
832781861470284928 354530 319594 335023 -173046
832781861488496256 353999 319025 335041 -173085
832781861506707584 353519 318598 335128 -173041
832781861524919040 353236 318236 335175 -173064
832781861543130368 352964 318019 335054 -173113
832781861561341696 353010 318033 335110 -173044
832781861579553138 353150 318173 335084 -173068
832781861597764352 353351 318370 335073 -173014
832781861615975552 353614 318645 335062 -173002
832781861634186624 353963 318940 335073 -173052
832781861652397824 354186 319156 335071 -173023
832781861670609024 354410 319386 335119 -173014
832781861688820224 354503 319490 335041 -173023
832781861707031296 354545 319584 335086 -173099
832781861725242496 354605 319543 335019 -173030
832781861743453696 354655 319574 335053 -173044
832781861761664768 354766 319672 335111 -173034
832781861779875968 354761 319780 335082 -173094
832781861798087168 355088 320087 335105 -173053
832781861816298368 355339 320302 335070 -173027
832781861834509440 355661 320638 335101 -173006
832781861852720640 355945 320925 335070 -172967
832781861870931840 356201 321227 335119 -172999
832781861889142912 356260 321280 335099 -172997
832781861907354112 356114 321194 335049 -173045
832781861925565312 355835 320857 335126 -173038
832781861943776384 355348 320314 335073 -173058
832781861961987584 354841 319840 335092 -173056
832781861980198784 354290 319313 335097 -173040
832781861998409984 353760 318799 335034 -173051
832781862016621056 353495 318509 335060 -173024
832781862034832256 353170 318144 335134 -173025
832781862053043456 353094 317972 335108 -173014
832781862071254528 353114 318000 335066 -173051
832781862089465728 353213 318184 335059 -173039
832781862107676928 353493 318443 335031 -173026
832781862125888128 353770 318792 335091 -173020
832781862144099200 354067 319098 335053 -173067
832781862162310400 354262 319308 335056 -173082
832781862180521600 354468 319413 335127 -173033
832781862198732672 354575 319472 335029 -173064
832781862216943872 354627 319540 335079 -173073
832781862235155072 354646 319642 335095 -173040
832781862253366166 354570 319639 335087 -173056
832781862271578496 354720 319726 335100 -173097
832781862289790848 354901 319923 335114 -173029
832781862308003072 355191 320216 335103 -173087
832781862326215424 355499 320495 335091 -173115
832781862344427776 355821 320782 335076 -173067
832781862362640128 356055 321079 335069 -173094
832781862380852352 356206 321266 335074 -173019
832781862399064704 356203 321189 335047 -173033
832781862417277056 355984 321024 335071 -173023
832781862435489408 355584 320660 335088 -173033
832781862453701632 355112 320181 335099 -173081
832781862471913984 354500 319531 335068 -173073
832781862490126336 354034 318992 335105 -173023
832781862508338688 353555 318561 335104 -173072
832781862526550912 353318 318356 335108 -173074
832781862544763264 353129 318056 335082 -173043
832781862562975616 353061 318022 335105 -173044
832781862581187840 353195 318139 335062 -173117
832781862599400192 353315 318345 335048 -173129
832781862617612544 353606 318630 335046 -173133
832781862635824896 353921 318947 335067 -173022
832781862654037120 354211 319180 335104 -173018
832781862672249472 354376 319413 335041 -173081
832781862690461824 354490 319445 335044 -173047
832781862708674176 354566 319549 335088 -173054
832781862726886400 354527 319563 335045 -173051
832781862745098752 354609 319631 335065 -173064
832781862763311104 354719 319693 335066 -173046
832781862781523328 354885 319857 335063 -173033
832781862799735680 355020 320017 335048 -173077
832781862817948032 355353 320306 335035 -173052
832781862836160384 355657 320648 335015 -173048
832781862854372608 355974 320990 335043 -173006
832781862872584960 356235 321176 335077 -173045
832781862890797312 356280 321243 335096 -173035
832781862909009664 356109 321033 335060 -173108
832781862927221918 355826 320728 335112 -173051
832781862945434368 355344 320274 335057 -173089
832781862963646848 354799 319780 335057 -173090
832781862981859328 354273 319242 335020 -173037
832781863000071808 353745 318708 335044 -173046
832781863018284288 353348 318313 335041 -173092
832781863036496768 353207 318190 335049 -173046
832781863054709248 353038 318039 335071 -173034
832781863072921728 353109 318165 335133 -173013
832781863091134336 353256 318300 335052 -173010
832781863109346816 353522 318516 335119 -172986
832781863127559296 353803 318785 335069 -173034
832781863145771776 354077 319094 335110 -173014
832781863163984256 354325 319220 335069 -173011
832781863182196736 354496 319437 335083 -173013
832781863200409216 354515 319481 335094 -173039
832781863218621696 354500 319576 335088 -173028
832781863236834176 354567 319551 335068 -173073
832781863255046656 354636 319657 335190 -172988
832781863273259136 354780 319830 335147 -173019
832781863291471616 354976 319928 335104 -173063
832781863309684096 355134 320179 335046 -173041
832781863327896576 355494 320543 335061 -173048
832781863346109056 355797 320801 335069 -173077
832781863364321536 356111 321079 335085 -173022
832781863382534144 356307 321222 335067 -173062
832781863400746624 356271 321248 335087 -173024
832781863418959104 355980 321025 335091 -173053
832781863437171584 355523 320506 335026 -173113
832781863455384064 355011 320056 335059 -173077
832781863473596544 354462 319473 335059 -173073
832781863491809024 353933 318920 335002 -173069
832781863510021504 353508 318502 335070 -173027
832781863528233984 353160 318156 335041 -173095
832781863546446464 352998 317984 334986 -173095
832781863564659006 353026 318001 335000 -173042
832781863582869760 353193 318130 335019 -173055
832781863601080576 353375 318341 335090 -173078
832781863619291392 353675 318600 334998 -173133
832781863637502208 353912 318979 335101 -173071
832781863655713152 354210 319235 335152 -173081
832781863673923968 354360 319411 335046 -173090
832781863692134784 354500 319499 335068 -173116
832781863710345600 354580 319614 335097 -173085
832781863728556416 354582 319589 335091 -173056
832781863746767232 354607 319601 335081 -173035
832781863764978048 354662 319618 335034 -173057
832781863783188992 354788 319792 335024 -173092
832781863801399808 355049 320017 335063 -173064
832781863819610624 355387 320304 335036 -173053
832781863837821440 355782 320680 335086 -173007
832781863856032256 356003 320897 335023 -173000
832781863874243072 356164 321148 335058 -173011
832781863892453888 356251 321221 335097 -173106
832781863910664832 356109 321035 335030 -173040
832781863928875648 355745 320727 335081 -173061
832781863947086464 355203 320249 335041 -173094
832781863965297280 354658 319744 335087 -173039
832781863983508096 354142 319186 335078 -173092
832781864001718912 353674 318819 335118 -173067
832781864019929728 353305 318335 335102 -173087
832781864038140672 353089 318039 335117 -173047
832781864056351488 353000 317961 335090 -173097
832781864074562304 353094 318086 335083 -173075
832781864092773120 353356 318246 335069 -173012
832781864110983936 353571 318505 335075 -173047
832781864129194752 353821 318793 335028 -173079
832781864147405568 354071 319083 334981 -173063
832781864165616384 354292 319328 335084 -173056
832781864183827328 354437 319428 334997 -173124
832781864202038144 354566 319572 335116 -173018
832781864220248960 354601 319570 335110 -173082
832781864238459776 354546 319614 335068 -173117
832781864256670592 354637 319588 335047 -173090
832781864274881532 354775 319702 335082 -173062
832781864293093120 354998 319933 335114 -173026
832781864311304704 355266 320243 335103 -173020
832781864329516416 355489 320521 335066 -173077
832781864347728000 355848 320902 335129 -173062
832781864365939584 356078 321105 335059 -173086
832781864384151168 356278 321185 335068 -173059
832781864402362880 356187 321131 335063 -173053
832781864420574464 355907 320956 335101 -173100
832781864438786048 355468 320458 335101 -173036
832781864456997632 355032 319973 335084 -173053
832781864475209344 354436 319435 335056 -173079
832781864493420928 353894 318890 335023 -173040
832781864511632512 353495 318454 335082 -173024
832781864529844096 353162 318073 335022 -173068
832781864548055808 353049 318029 335124 -173036
832781864566267392 353027 318025 335050 -173097
832781864584478976 353245 318178 335041 -173068
832781864602690560 353398 318353 335009 -173098
832781864620902272 353717 318737 335098 -173059
832781864639113856 353993 318991 335114 -173038
832781864657325440 354198 319169 335125 -173045
832781864675537024 354449 319428 335117 -172994
832781864693748736 354513 319498 335066 -173041
832781864711960320 354522 319612 335068 -173039
832781864730171904 354606 319627 335122 -172992
832781864748383488 354644 319614 335082 -173039
832781864766595200 354753 319717 335104 -173038
832781864784806784 354949 319875 335068 -172974
832781864803018368 355128 320087 335102 -173070
832781864821229952 355354 320383 335096 -173096
832781864839441664 355715 320730 335117 -173031
832781864857653248 356057 321086 335152 -173001
832781864875864832 356258 321240 335179 -173009
832781864894076416 356238 321249 335085 -173079
832781864912288128 356122 321067 335136 -173021
832781864930499728 355759 320747 335149 -172996
832781864948711296 355292 320273 335111 -173031
832781864966922880 354717 319680 335068 -173016
832781864985134592 354214 319172 335111 -173023
832781865003346176 353690 318720 335108 -172999
832781865021557760 353337 318327 335105 -173045
832781865039769344 353074 318121 335082 -173060
832781865057981056 352963 317988 335032 -173085
832781865076192640 353103 318105 335079 -173056
832781865094404224 353352 318318 335086 -173023
832781865112615808 353595 318600 335082 -173065
832781865130827520 353873 318849 335019 -173082
832781865149039104 354173 319190 335058 -173004
832781865167250688 354377 319366 335093 -173051
832781865185462272 354509 319476 335097 -173058
832781865203673984 354573 319560 335102 -173045
832781865221885568 354597 319606 335082 -173047
832781865240097152 354610 319642 335067 -173073
832781865258308736 354657 319633 335094 -173074
832781865276520448 354810 319760 335067 -173111
832781865294732032 355020 319973 335090 -173070
832781865312943616 355252 320235 335091 -173079
832781865331155200 355589 320592 335047 -173064
832781865349366912 355867 320884 335050 -173078
832781865367578496 356107 321091 334924 -173129
832781865385790080 356287 321240 335018 -173062
832781865404001664 356174 321145 335087 -173057
832781865422213376 355911 320872 335075 -173033
832781865440424960 355438 320393 335039 -173091
832781865458636544 354998 319946 335080 -173041
832781865476848128 354385 319389 335071 -173054
832781865495059840 353872 318851 335067 -173067
832781865513271424 353418 318428 335085 -173020
832781865531483008 353269 318288 335129 -173047
832781865549694592 353063 318096 335091 -173044
832781865567906304 353003 318063 335034 -173045
832781865586117924 353212 318250 335130 -173022
832781865604330368 353477 318488 335064 -173057
832781865622542848 353758 318719 335075 -173078
832781865640755200 354036 318988 335096 -173081
832781865658967680 354320 319227 335028 -173064
832781865677180160 354447 319375 335061 -173028
832781865695392512 354546 319513 335091 -173094
832781865713604992 354602 319551 335060 -173037
832781865731817472 354592 319580 335139 -173056
832781865750029952 354698 319698 335148 -172986
832781865768242304 354727 319745 335138 -173056
832781865786454784 354841 319863 335109 -173085
832781865804667264 355123 320180 335094 -173045
832781865822879616 355404 320426 335067 -173063
832781865841092096 355773 320826 335124 -173026
832781865859304576 356060 321040 335071 -173064
832781865877516928 356204 321176 335025 -173111
832781865895729408 356240 321191 335098 -173093
832781865913941888 356037 321056 335032 -173116
832781865932154368 355727 320737 335046 -173094
832781865950366720 355135 320165 335014 -173018
832781865968579200 354692 319710 334997 -173063
832781865986791680 354122 319160 335017 -173107
832781866005004032 353608 318608 334977 -173103
832781866023216512 353337 318297 335006 -173067
832781866041428992 353128 318090 335078 -173086
832781866059641344 353045 318039 335096 -173022
832781866077853824 353137 318136 335067 -173100
832781866096066304 353419 318374 335116 -173024
832781866114278784 353616 318569 335103 -173091
832781866132491136 353945 318925 335166 -173030
832781866150703616 354196 319173 335137 -173061
832781866168916096 354413 319364 335124 -173048
832781866187128448 354498 319462 335056 -173088
832781866205340928 354576 319588 335107 -173041
832781866223553408 354538 319570 335087 -173079
832781866241765760 354627 319594 335047 -173035
832781866259978254 354672 319654 335054 -173033
832781866278190720 354829 319773 335088 -173051
832781866296403200 354968 320002 335056 -173050
832781866314615552 355290 320247 335078 -173028
832781866332828032 355567 320589 335095 -173070
832781866351040512 355934 320911 335087 -173078
832781866369252864 356150 321120 335044 -173057
832781866387465344 356326 321277 335127 -173014
832781866405677824 356125 321247 335091 -173089
832781866423890304 355861 320816 335054 -173108
832781866442102656 355454 320412 335063 -173048
832781866460315136 354883 319871 335027 -173096
832781866478527616 354474 319502 335076 -173025
832781866496739968 353861 318972 335082 -173035
832781866514952448 353400 318548 335091 -173077
832781866533164928 353082 318148 335043 -173087
832781866551377280 353023 318033 335049 -173036
832781866569589760 353080 318031 335078 -173045
832781866587802240 353214 318203 335119 -173030
832781866606014720 353443 318384 335090 -173052
832781866624227072 353736 318729 335090 -173047
832781866642439552 354041 319061 335107 -173000
832781866660652032 354283 319275 335111 -172993
832781866678864384 354428 319463 335101 -172970
832781866697076864 354511 319569 335126 -173023
832781866715289344 354644 319641 335111 -173013
832781866733501696 354624 319628 335093 -173011
832781866751714176 354670 319655 335120 -173024
832781866769926656 354750 319755 335074 -173024
832781866788139136 355009 319974 335147 -172954
832781866806351488 355193 320241 335120 -172953
832781866824563968 355494 320480 335113 -173041
832781866842776448 355751 320799 335052 -173031
832781866860988800 356097 321104 335146 -172999
832781866879201280 356257 321316 335114 -173004
832781866897413760 356306 321256 335092 -173008
832781866915626112 356089 321033 335113 -173041
832781866933838584 355722 320693 335094 -172987
832781866952051072 355149 320156 335078 -173078
832781866970263552 354616 319629 335087 -173081
832781866988476032 354059 319098 335155 -173072
832781867006688512 353608 318591 335112 -173063
832781867024900992 353240 318190 335065 -173058
832781867043113472 353062 318087 335141 -173050
832781867061325952 353063 318048 335153 -173010
832781867079538432 353101 318094 335093 -173035
832781867097751040 353331 318320 335121 -173007
832781867115963520 353617 318581 335058 -173027
832781867134176000 353888 318930 335066 -173067
832781867152388480 354118 319181 335032 -173114
832781867170600960 354344 319383 335018 -173091
832781867188813440 354510 319552 335092 -173065
832781867207025920 354576 319548 335145 -173109
832781867225238400 354623 319581 335097 -173051
832781867243450880 354657 319593 335092 -173063
832781867261663360 354716 319644 335053 -173086
832781867279875840 354826 319755 335028 -173023
832781867298088320 355011 319979 335081 -173061
832781867316300800 355361 320318 335101 -173044
832781867334513280 355612 320592 335074 -173095
832781867352725760 355881 320872 335031 -173080
832781867370938240 356166 321193 335066 -173087
832781867389150848 356270 321346 335090 -173059
832781867407363328 356121 321213 335096 -173067
832781867425575808 355777 320824 335074 -173134
832781867443788288 355399 320417 335096 -173091
832781867462000768 354810 319875 335069 -173059
832781867480213248 354291 319262 335095 -173042
832781867498425728 353735 318768 334975 -173064
832781867516638208 353463 318495 335083 -173058
832781867534850688 353147 318161 335062 -173030
832781867553063168 353003 318006 335092 -173071
832781867571275672 353012 317984 335024 -173045
832781867589488640 353213 318166 335080 -173093
832781867607701632 353437 318447 335064 -173079
832781867625914496 353817 318798 335112 -173002
832781867644127488 354058 319004 335014 -173064
832781867662340480 354238 319297 335020 -173033
832781867680553344 354450 319442 335080 -173045
832781867698766336 354476 319526 335064 -173121
832781867716979328 354619 319610 335100 -173036
832781867735192192 354607 319605 335075 -173075
832781867753405184 354646 319587 335060 -173136
832781867771618048 354767 319690 335033 -173107
832781867789831040 354908 319889 335042 -173007
832781867808044032 355182 320188 335062 -173094
832781867826256896 355495 320495 335103 -173056
832781867844469888 355765 320767 335048 -173057
832781867862682880 356034 321056 335034 -173069
832781867880895744 356234 321274 335036 -173014
832781867899108736 356270 321198 335100 -173011
832781867917321728 356048 321061 335109 -173042
832781867935534592 355627 320610 335071 -173068
832781867953747584 355113 320083 335074 -173072
832781867971960576 354581 319525 335076 -173100
832781867990173440 354027 318990 335081 -173017
832781868008386432 353565 318540 335057 -173014
832781868026599424 353227 318232 335002 -173094
832781868044812288 353109 318080 335040 -173037
832781868063025280 353047 318024 335051 -173068
832781868081238144 353166 318152 335137 -173047
832781868099451136 353393 318378 335131 -173043
832781868117664128 353608 318635 335056 -173119
832781868135876992 353938 318929 335095 -173055
832781868154089984 354163 319178 335082 -173102
832781868172302976 354398 319418 335093 -173112
832781868190515840 354515 319513 335084 -173105
832781868208728832 354550 319559 335122 -173038
832781868226941824 354589 319575 335069 -173059
832781868245154688 354657 319639 335071 -173089
832781868263367680 354692 319675 335084 -173067
832781868281580598 354920 319865 335069 -173044
832781868299794944 355088 320056 335040 -173054
832781868318009344 355363 320377 335053 -173046
832781868336223744 355682 320662 335041 -173035
832781868354438144 355948 320877 335060 -173051
832781868372652544 356210 321157 335124 -173075
832781868390867072 356261 321278 335100 -173009
832781868409081472 356104 321097 335104 -173053
832781868427295872 355792 320731 335059 -173037
832781868445510272 355313 320321 335091 -173030
832781868463724672 354768 319826 335126 -173040
832781868481939072 354276 319301 335121 -173037
832781868500153472 353795 318791 335105 -173020
832781868518367872 353415 318384 335097 -173046
832781868536582272 353178 318209 335075 -173103
832781868554796800 353018 318015 335107 -173061
832781868573011200 353064 318109 335101 -173069
832781868591225600 353199 318252 335081 -173055
832781868609440000 353487 318560 335041 -173085
832781868627654400 353762 318813 335118 -173048
832781868645868800 354108 319132 335102 -173022
832781868664083200 354332 319313 335057 -173072
832781868682297600 354486 319452 335056 -173053
832781868700512000 354547 319552 335075 -173061
832781868718726528 354657 319606 335093 -173045
832781868736940928 354705 319615 335135 -173071
832781868755155328 354665 319669 335073 -173024
832781868773369728 354744 319790 335074 -173024
832781868791584128 354968 319953 335103 -173057
832781868809798528 355296 320222 335068 -173011
832781868828012928 355599 320589 335084 -173028
832781868846227328 355912 320822 335056 -173020
832781868864441728 356115 321117 335061 -173044
832781868882656256 356260 321189 335087 -173074
832781868900870656 356165 321281 335116 -173087
832781868919085056 356003 321022 335117 -173103
832781868937299504 355565 320567 335128 -173034
832781868955512192 355088 320060 335078 -173016
832781868973724928 354485 319471 335061 -173026
832781868991937664 353952 319005 335115 -173036
832781869010150400 353496 318591 335097 -173018
832781869028363136 353220 318256 335082 -172991
832781869046575872 353072 318035 335092 -173017
832781869064788608 353083 317968 335065 -173057
832781869083001344 353185 318162 335086 -173076
832781869101214080 353402 318408 335119 -173029
832781869119426816 353644 318679 335108 -173069
832781869137639552 353963 318981 335121 -173077
832781869155852160 354261 319184 335084 -173006
832781869174064896 354427 319393 335063 -173052
832781869192277632 354532 319516 335081 -173080
832781869210490368 354603 319526 335078 -173065
832781869228703104 354622 319611 335120 -173051
832781869246915840 354645 319652 335116 -173017
832781869265128576 354759 319691 335138 -172996
832781869283341312 354839 319829 335063 -173011
832781869301554048 355081 320061 335090 -173039
832781869319766784 355378 320373 335079 -173011
832781869337979520 355738 320699 335108 -173063
832781869356192256 356067 321001 335122 -173041
832781869374404992 356204 321260 335081 -173038
832781869392617728 356262 321305 335057 -173017
832781869410830464 356104 321110 335070 -173057
832781869429043200 355792 320725 335048 -173031
832781869447255936 355283 320266 335108 -173088
832781869465468672 354724 319745 335064 -173060
