TIMESTAMP PPG0 PPG1 PPG2 AMBIENT
832782043255189248 5354 -31552 -5262 -512923
832782043273371008 5423 -31519 -5237 -512931
832782043291552896 5398 -31545 -5224 -512895
832782043309734656 5399 -31532 -5220 -512914
832782043327916544 5377 -31620 -5248 -512940
832782043346098304 5401 -31570 -5231 -512906
832782043364280192 5382 -31651 -5296 -512935
832782043382461952 5382 -31603 -5219 -512922
832782043400643840 5357 -31594 -5265 -512939
832782043418825600 5316 -31581 -5247 -512896
832782043437007488 5359 -31530 -5185 -512955
832782043455189248 5385 -31493 -5157 -512937
832782043473371008 5405 -31583 -5211 -512897
832782043491552896 5386 -31540 -5155 -512853
832782043509734656 5411 -31536 -5174 -512903
832782043527916544 5385 -31496 -5246 -512886
832782043546098304 5381 -31554 -5167 -512922
832782043564280192 5429 -31582 -5166 -512858
832782043582461952 5438 -31569 -5202 -512901
832782043600643840 5421 -31539 -5215 -512915
832782043618825600 5388 -31551 -5263 -512915
832782043637007488 5375 -31554 -5214 -512858
832782043655189248 5355 -31562 -5214 -512929
832782043673371008 5388 -31594 -5226 -512906
832782043691552896 5375 -31580 -5220 -512898
832782043709734656 5444 -31532 -5157 -512893
832782043727916544 5376 -31583 -5179 -512914
832782043746098304 5399 -31556 -5185 -512903
832782043764280192 5353 -31554 -5205 -512897
832782043782461952 5361 -31586 -5187 -512879
832782043800643840 5349 -31600 -5284 -512939
832782043818825600 5307 -31602 -5233 -512940
832782043837007488 5377 -31554 -5187 -512950
832782043855189248 5406 -31518 -5175 -512873
832782043873371008 5351 -31538 -5252 -512938
832782043891552896 5365 -31599 -5245 -512931
832782043909734656 5379 -31621 -5233 -512892
832782043927916544 5371 -31626 -5224 -512977
832782043946098304 5403 -31598 -5201 -512930
832782043964280192 5436 -31576 -5241 -512870
832782043982461952 5412 -31559 -5252 -512942
832782044000643840 5392 -31603 -5310 -512914
832782044018825600 5410 -31568 -5216 -512903
832782044037007488 5438 -31576 -5204 -512892
832782044055189248 5430 -31579 -5169 -512839
832782044073371008 5378 -31613 -5263 -512872
832782044091552896 5396 -31572 -5201 -512867
832782044109734656 5394 -31548 -5204 -512845
832782044127916544 5439 -31561 -5204 -512864
832782044146098304 5347 -31532 -5252 -512912
832782044164280192 5392 -31614 -5288 -512902
832782044182461926 5415 -31594 -5254 -512949
832782044200674432 5349 -31602 -5229 -512920
832782044218886912 5366 -31582 -5251 -512889
832782044237099392 5323 -31588 -5218 -512893
832782044255312000 5358 -31571 -5210 -512846
832782044273524480 5362 -31604 -5207 -512911
832782044291736960 5446 -31592 -5218 -512920
832782044309949440 5449 -31479 -5162 -512894
832782044328161920 5375 -31585 -5227 -512950
832782044346374528 5349 -31565 -5228 -512897
832782044364587008 5343 -31575 -5245 -512905
832782044382799488 5355 -31599 -5233 -512897
832782044401011968 5392 -31510 -5205 -512850
832782044419224576 5395 -31536 -5231 -512894
832782044437437056 5418 -31574 -5220 -512903
832782044455649536 5423 -31565 -5205 -512927
832782044473862016 5428 -31571 -5184 -512877
832782044492074496 5423 -31547 -5195 -512885
832782044510287104 5419 -31564 -5201 -512901
832782044528499584 5410 -31546 -5181 -512925
832782044546712064 5445 -31470 -5169 -512868
832782044564924544 5442 -31514 -5210 -512872
832782044583137024 5444 -31597 -5211 -512873
832782044601349632 5484 -31592 -5176 -512862
832782044619562112 5413 -31515 -5175 -512865
832782044637774592 5426 -31623 -5341 -512911
832782044655987072 5410 -31610 -5268 -512871
832782044674199552 5401 -31614 -5219 -512922
832782044692412160 5401 -31614 -5230 -512889
832782044710624640 5384 -31588 -5212 -512891
832782044728837120 5425 -31581 -5239 -512896
832782044747049600 5410 -31470 -5131 -512935
832782044765262080 5423 -31530 -5192 -512869
832782044783474688 5406 -31530 -5129 -512867
832782044801687168 5435 -31473 -5172 -512871
832782044819899648 5410 -31526 -5192 -512891
832782044838112128 5394 -31537 -5194 -512853
832782044856324736 5406 -31557 -5181 -512889
832782044874537216 5495 -31553 -5128 -512854
832782044892749696 5427 -31585 -5192 -512932
832782044910962176 5367 -31540 -5210 -512893
832782044929174656 5425 -31555 -5197 -512856
832782044947387264 5463 -31553 -5198 -512842
832782044965599744 5422 -31501 -5194 -512846
832782044983812224 5491 -31435 -5180 -512862
832782045002024704 5388 -31503 -5175 -512933
832782045020237184 5369 -31537 -5205 -512877
832782045038449792 5364 -31559 -5169 -512904
832782045056662248 5426 -31504 -5151 -512896
832782045074875392 5482 -31543 -5117 -512823
832782045093088512 5401 -31518 -5140 -512828
832782045111301632 5425 -31502 -5213 -512885
832782045129514880 5408 -31552 -5173 -512925
832782045147728000 5448 -31495 -5153 -512893
832782045165941120 5456 -31500 -5191 -512828
832782045184154240 5415 -31524 -5199 -512890
832782045202367360 5445 -31509 -5105 -512893
832782045220580480 5418 -31535 -5209 -512868
832782045238793728 5365 -31575 -5163 -512905
832782045257006848 5357 -31563 -5213 -512871
832782045275219968 5392 -31492 -5193 -512885
832782045293433088 5481 -31502 -5190 -512821
832782045311646208 5397 -31544 -5150 -512857
832782045329859328 5453 -31512 -5156 -512841
832782045348072576 5430 -31468 -5167 -512909
832782045366285696 5430 -31539 -5208 -512916
832782045384498816 5489 -31468 -5231 -512833
832782045402711936 5511 -31461 -5176 -512808
832782045420925056 5406 -31545 -5222 -512877
832782045439138176 5461 -31456 -5197 -512857
832782045457351424 5442 -31500 -5210 -512877
832782045475564544 5454 -31508 -5199 -512858
832782045493777664 5454 -31543 -5185 -512869
832782045511990784 5392 -31564 -5218 -512918
832782045530203904 5412 -31540 -5219 -512858
832782045548417152 5398 -31570 -5235 -512859
832782045566630272 5410 -31551 -5245 -512882
832782045584843392 5394 -31586 -5255 -512928
832782045603056512 5471 -31552 -5208 -512923
832782045621269632 5444 -31564 -5234 -512921
832782045639482752 5421 -31501 -5170 -512920
832782045657696000 5437 -31560 -5232 -512914
832782045675909120 5440 -31528 -5230 -512931
832782045694122240 5433 -31614 -5310 -512946
832782045712335360 5470 -31521 -5214 -512912
832782045730548480 5396 -31527 -5205 -512912
832782045748761600 5396 -31556 -5124 -512893
832782045766974848 5359 -31571 -5220 -512948
832782045785187968 5412 -31585 -5176 -512899
832782045803401088 5402 -31602 -5205 -512903
832782045821614208 5369 -31540 -5210 -512893
832782045839827328 5382 -31590 -5224 -512898
832782045858040576 5427 -31455 -5204 -512881
832782045876253696 5416 -31591 -5201 -512912
832782045894466816 5437 -31575 -5236 -512922
832782045912679936 5468 -31543 -5252 -512885
832782045930893056 5438 -31595 -5218 -512882
832782045949106222 5471 -31585 -5157 -512812
832782045967318528 5392 -31611 -5233 -512902
832782045985530880 5359 -31561 -5218 -512895
832782046003743232 5340 -31587 -5204 -512915
832782046021955584 5399 -31545 -5254 -512877
832782046040167936 5388 -31514 -5202 -512858
832782046058380288 5325 -31606 -5228 -512952
832782046076592640 5405 -31599 -5178 -512856
832782046094804992 5451 -31560 -5143 -512856
832782046113017344 5412 -31558 -5148 -512901
832782046131229824 5394 -31524 -5184 -512880
832782046149442176 5426 -31539 -5202 -512881
832782046167654528 5366 -31589 -5265 -512948
832782046185866880 5425 -31511 -5150 -512860
832782046204079232 5392 -31522 -5203 -512880
832782046222291584 5413 -31552 -5216 -512867
832782046240503936 5446 -31559 -5250 -512891
832782046258716288 5477 -31534 -5145 -512880
832782046276928640 5397 -31534 -5156 -512863
832782046295140992 5433 -31526 -5165 -512860
832782046313353344 5418 -31500 -5231 -512880
832782046331565696 5454 -31551 -5246 -512829
832782046349778048 5432 -31583 -5173 -512834
832782046367990400 5419 -31504 -5217 -512855
832782046386202752 5416 -31549 -5198 -512845
832782046404415104 5409 -31546 -5199 -512910
832782046422627584 5414 -31556 -5179 -512848
832782046440839936 5440 -31512 -5151 -512868
832782046459052288 5479 -31493 -5147 -512902
832782046477264640 10374 -26589 -5168 -512904
832782046495476992 12296 -24693 -5132 -512854
832782046513689344 12802 -24097 -5197 -512860
832782046531901696 12892 -23913 -5229 -512880
832782046550114048 13014 -23946 -5149 -512862
832782046568326400 13090 -23824 -5220 -512851
832782046586538752 13314 -23623 -5160 -512838
832782046604751104 13570 -23388 -5181 -512854
832782046622963456 13915 -23100 -5155 -512857
832782046641175808 14164 -22859 -5160 -512887
832782046659388258 14387 -22597 -5170 -512833
832782046677601664 14546 -22395 -5192 -512872
832782046695815040 14632 -22245 -5162 -512874
832782046714028416 14711 -22227 -5123 -512856
832782046732241664 14774 -22263 -5118 -512862
832782046750455040 14811 -22181 -5135 -512854
832782046768668416 14912 -22071 -5150 -512886
832782046786881792 15051 -21881 -5175 -512872
832782046805095168 15325 -21666 -5191 -512838
832782046823308416 15619 -21396 -5213 -512835
832782046841521792 15939 -21068 -5121 -512799
832782046859735168 16189 -20771 -5163 -512814
832782046877948544 16461 -20555 -5191 -512860
832782046896161792 16436 -20544 -5164 -512914
832782046914375168 16245 -20747 -5156 -512869
832782046932588544 15934 -21073 -5225 -512788
832782046950801920 15415 -21594 -5169 -512872
832782046969015296 14881 -22142 -5150 -512875
832782046987228544 14361 -22700 -5199 -512840
832782047005441920 13826 -23183 -5204 -512904
832782047023655296 13514 -23541 -5194 -512839
832782047041868672 13266 -23782 -5198 -512813
832782047060082048 13223 -23848 -5159 -512827
832782047078295296 13236 -23703 -5148 -512831
832782047096508672 13481 -23464 -5139 -512793
832782047114722048 13763 -23261 -5110 -512835
832782047132935424 14059 -22927 -5068 -512837
832782047151148672 14370 -22711 -5099 -512865
832782047169362048 14512 -22391 -5133 -512846
832782047187575424 14688 -22318 -5140 -512888
832782047205788800 14800 -22238 -5133 -512835
832782047224002176 14797 -22219 -5172 -512842
832782047242215424 14759 -22195 -5222 -512855
832782047260428800 14793 -22146 -5173 -512867
832782047278642176 14973 -21991 -5135 -512887
832782047296855552 15211 -21787 -5124 -512862
832782047315068928 15445 -21508 -5190 -512874
832782047333282158 15806 -21185 -5148 -512792
832782047351496832 16132 -20866 -5091 -512819
832782047369711488 16383 -20605 -5157 -512847
832782047387926144 16441 -20516 -5148 -512872
832782047406140800 16346 -20660 -5195 -512897
832782047424355456 16074 -20899 -5199 -512875
832782047442570112 15642 -21316 -5265 -512886
832782047460784896 15148 -21866 -5191 -512922
832782047478999552 14535 -22312 -5180 -512906
832782047497214208 14052 -22821 -5107 -512891
832782047515428864 13562 -23389 -5153 -512881
832782047533643520 13288 -23618 -5132 -512894
832782047551858176 13135 -23823 -5200 -512872
832782047570072832 13152 -23781 -5157 -512858
832782047588287488 13362 -23630 -5159 -512845
832782047606502144 13611 -23393 -5138 -512874
832782047624716800 13902 -23112 -5166 -512940
832782047642931584 14222 -22845 -5146 -512914
832782047661146240 14434 -22636 -5197 -512874
832782047679360896 14579 -22379 -5152 -512834
832782047697575552 14673 -22236 -5146 -512855
832782047715790208 14690 -22254 -5148 -512864
832782047734004864 14756 -22193 -5144 -512870
832782047752219520 14789 -22108 -5121 -512862
832782047770434176 14909 -22023 -5088 -512895
832782047788648832 15022 -21905 -5152 -512911
832782047806863488 15240 -21733 -5170 -512914
832782047825078272 15582 -21366 -5214 -512882
832782047843292928 15893 -21059 -5158 -512916
832782047861507584 16209 -20785 -5230 -512926
832782047879722240 16443 -20505 -5156 -512851
832782047897936896 16375 -20559 -5246 -512897
832782047916151552 16272 -20726 -5209 -512894
832782047934366208 15908 -21089 -5157 -512868
832782047952580864 15332 -21645 -5197 -512848
832782047970795520 14804 -22238 -5183 -512928
832782047989010218 14377 -22604 -5153 -512857
832782048007224832 13832 -23123 -5158 -512904
832782048025439488 13486 -23534 -5163 -512840
832782048043654144 13243 -23754 -5162 -512936
832782048061868800 13165 -23816 -5195 -512897
832782048080083456 13220 -23767 -5258 -512875
832782048098298112 13511 -23503 -5205 -512905
832782048116512896 13787 -23266 -5183 -512880
832782048134727552 14035 -22926 -5258 -512884
832782048152942208 14232 -22680 -5235 -512928
832782048171156864 14487 -22459 -5221 -512902
832782048189371520 14603 -22288 -5198 -512946
832782048207586176 14742 -22280 -5179 -512904
832782048225800832 14768 -22211 -5091 -512881
832782048244015488 14761 -22264 -5076 -512870
832782048262230144 14796 -22138 -5159 -512904
832782048280444800 14948 -22054 -5136 -512889
832782048298659584 15151 -21836 -5143 -512895
832782048316874240 15461 -21528 -5167 -512925
832782048335088896 15709 -21272 -5162 -512902
832782048353303552 16079 -20927 -5193 -512909
832782048371518208 16328 -20636 -5155 -512874
832782048389732864 16450 -20527 -5172 -512854
832782048407947520 16312 -20611 -5172 -512894
832782048426162176 15993 -21004 -5174 -512878
832782048444376832 15632 -21374 -5153 -512834
832782048462591488 15087 -21925 -5157 -512846
832782048480806144 14489 -22453 -5150 -512874
832782048499020928 13969 -22992 -5124 -512892
832782048517235584 13567 -23380 -5067 -512911
832782048535450240 13261 -23678 -5127 -512856
832782048553664896 13165 -23813 -5134 -512825
832782048571879552 13155 -23755 -5133 -512864
832782048590094208 13355 -23534 -5112 -512870
832782048608308864 13541 -23344 -5161 -512920
832782048626523520 13913 -23026 -5158 -512819
832782048644738176 14209 -22742 -5115 -512906
832782048662952940 14473 -22457 -5089 -512816
832782048681167616 14597 -22324 -5113 -512859
832782048699382272 14716 -22258 -5151 -512869
832782048717596928 14743 -22219 -5169 -512828
832782048735811584 14765 -22189 -5181 -512839
832782048754026240 14777 -22129 -5121 -512837
832782048772240896 14857 -22051 -5163 -512838
832782048790455680 15087 -21885 -5175 -512847
832782048808670336 15346 -21650 -5161 -512872
832782048826884992 15626 -21369 -5121 -512853
832782048845099648 16015 -21060 -5162 -512851
832782048863314304 16271 -20729 -5143 -512875
832782048881528960 16475 -20490 -5183 -512892
832782048899743616 16404 -20586 -5134 -512880
832782048917958272 16192 -20805 -5173 -512881
832782048936172928 15854 -21161 -5174 -512871
832782048954387584 15265 -21675 -5230 -512893
832782048972602368 14720 -22186 -5132 -512836
832782048990817024 14221 -22726 -5151 -512830
832782049009031680 13772 -23197 -5125 -512840
832782049027246336 13320 -23617 -5168 -512930
832782049045460992 13215 -23789 -5173 -512867
832782049063675648 13143 -23792 -5121 -512872
832782049081890304 13293 -23658 -5135 -512850
832782049100104960 13537 -23405 -5093 -512829
832782049118319616 13816 -23117 -5166 -512823
832782049136534272 14090 -22864 -5125 -512850
832782049154748928 14374 -22586 -5152 -512809
832782049172963712 14612 -22380 -5146 -512852
832782049191178368 14652 -22311 -5133 -512863
832782049209393024 14759 -22257 -5058 -512848
832782049227607680 14791 -22244 -5117 -512852
832782049245822336 14844 -22178 -5128 -512864
832782049264036992 14849 -22084 -5148 -512876
832782049282251648 15040 -21965 -5162 -512892
832782049300466304 15246 -21763 -5123 -512859
832782049318680960 15485 -21443 -5113 -512879
832782049336895616 15826 -21131 -5132 -512846
832782049355110400 16172 -20797 -5104 -512856
832782049373325004 16385 -20525 -5127 -512861
832782049391539712 16458 -20489 -5116 -512856
832782049409754368 16352 -20560 -5144 -512852
832782049427969024 16073 -20929 -5144 -512853
832782049446183680 15586 -21392 -5199 -512886
832782049464398336 15052 -21888 -5151 -512787
832782049482612992 14493 -22485 -5195 -512853
832782049500827776 13945 -23061 -5216 -512904
832782049519042432 13559 -23464 -5195 -512831
832782049537257088 13282 -23689 -5160 -512805
832782049555471744 13207 -23795 -5123 -512811
832782049573686400 13190 -23758 -5184 -512870
832782049591901056 13459 -23488 -5140 -512825
832782049610115712 13691 -23265 -5150 -512893
832782049628330368 14001 -22914 -5187 -512889
832782049646545024 14282 -22682 -5184 -512848
832782049664759680 14489 -22434 -5118 -512868
832782049682974464 14624 -22329 -5147 -512914
832782049701189120 14770 -22263 -5207 -512882
832782049719403776 14773 -22209 -5184 -512861
832782049737618432 14798 -22196 -5136 -512851
832782049755833088 14814 -22170 -5153 -512845
832782049774047744 14951 -22008 -5143 -512871
832782049792262400 15135 -21805 -5123 -512880
832782049810477056 15261 -21664 -5208 -512929
832782049828691712 15621 -21267 -5143 -512854
832782049846906368 16004 -20980 -5170 -512816
832782049865121152 16254 -20643 -5162 -512826
832782049883335808 16398 -20516 -5149 -512958
832782049901550464 16395 -20555 -5169 -512885
832782049919765120 16213 -20764 -5144 -512836
832782049937979776 15824 -21174 -5135 -512872
832782049956194432 15293 -21740 -5156 -512863
832782049974409088 14870 -22168 -5204 -512879
832782049992623744 14244 -22830 -5201 -512890
832782050010838396 13778 -23230 -5129 -512862
832782050029052288 13402 -23579 -5166 -512853
832782050047266176 13218 -23773 -5100 -512852
832782050065480064 13172 -23729 -5172 -512858
832782050083693952 13261 -23638 -5167 -512843
832782050101907840 13503 -23426 -5153 -512909
832782050120121728 13791 -23114 -5173 -512912
832782050138335616 14147 -22795 -5144 -512888
832782050156549504 14401 -22582 -5131 -512865
832782050174763392 14664 -22400 -5092 -512872
832782050192977280 14721 -22311 -5158 -512876
832782050211191168 14732 -22241 -5181 -512863
832782050229405056 14806 -22193 -5140 -512867
832782050247618944 14823 -22141 -5093 -512878
832782050265832832 14853 -22094 -5122 -512865
832782050284046720 14985 -21907 -5197 -512837
832782050302260608 15224 -21713 -5151 -512852
832782050320474496 15531 -21417 -5203 -512888
832782050338688384 15830 -21063 -5169 -512869
832782050356902272 16162 -20814 -5175 -512905
832782050375116160 16381 -20592 -5183 -512897
832782050393330048 16402 -20570 -5190 -512898
832782050411543936 16286 -20705 -5144 -512884
832782050429757824 15943 -21038 -5178 -512897
832782050447971712 15494 -21474 -5182 -512907
832782050466185600 14986 -21990 -5116 -512862
832782050484399488 14436 -22552 -5148 -512902
832782050502613376 13889 -23066 -5139 -512836
832782050520827264 13486 -23454 -5153 -512922
832782050539041152 13270 -23693 -5144 -512851
832782050557255040 13138 -23799 -5160 -512911
832782050575468800 13265 -23704 -5162 -512844
832782050593682688 13458 -23487 -5143 -512861
832782050611896576 13703 -23225 -5160 -512851
832782050630110464 13968 -22986 -5220 -512907
832782050648324352 14284 -22680 -5267 -512828
832782050666538240 14475 -22495 -5271 -512870
832782050684752128 14650 -22315 -5209 -512852
832782050702966016 14715 -22194 -5160 -512835
832782050721179942 14751 -22131 -5179 -512861
832782050739394304 14772 -22208 -5161 -512889
832782050757608704 14795 -22121 -5193 -512852
832782050775822976 14970 -22038 -5166 -512856
832782050794037376 15160 -21897 -5167 -512892
832782050812251648 15426 -21567 -5157 -512856
832782050830466048 15710 -21236 -5178 -512887
832782050848680320 15995 -20978 -5197 -512864
832782050866894720 16269 -20675 -5107 -512884
832782050885108992 16414 -20532 -5146 -512881
832782050903323392 16402 -20619 -5169 -512851
832782050921537664 16176 -20871 -5207 -512841
832782050939752064 15774 -21180 -5134 -512852
832782050957966336 15227 -21776 -5177 -512858
832782050976180736 14643 -22305 -5163 -512863
832782050994395008 14114 -22844 -5148 -512887
832782051012609408 13640 -23267 -5112 -512897
832782051030823680 13395 -23628 -5129 -512868
832782051049038080 13219 -23805 -5169 -512860
832782051067252352 13129 -23837 -5177 -512881
832782051085466752 13277 -23665 -5140 -512865
832782051103681024 13518 -23495 -5214 -512914
832782051121895424 13832 -23143 -5162 -512876
832782051140109696 14119 -22790 -5126 -512881
832782051158324096 14359 -22552 -5147 -512870
832782051176538368 14619 -22361 -5145 -512851
832782051194752768 14676 -22280 -5203 -512874
832782051212967040 14801 -22185 -5151 -512822
832782051231181440 14761 -22194 -5200 -512890
832782051249395840 14828 -22093 -5164 -512897
832782051267610112 14912 -22042 -5211 -512856
832782051285824512 15041 -21941 -5160 -512879
832782051304038784 15298 -21689 -5216 -512864
832782051322253184 15581 -21370 -5183 -512837
832782051340467456 15934 -21012 -5115 -512829
832782051358681856 16241 -20720 -5187 -512854
832782051376896128 16456 -20622 -5199 -512894
832782051395110462 16453 -20512 -5234 -512941
832782051413324544 16279 -20747 -5268 -512899
832782051431538688 15916 -21031 -5242 -512877
832782051449752832 15428 -21475 -5183 -512862
832782051467966976 14939 -22026 -5196 -512862
832782051486181120 14367 -22590 -5179 -512844
832782051504395392 13889 -23106 -5185 -512904
832782051522609536 13457 -23554 -5187 -512871
832782051540823680 13267 -23744 -5180 -512863
832782051559037824 13133 -23779 -5190 -512876
832782051577251968 13255 -23728 -5184 -512924
832782051595466112 13477 -23528 -5209 -512841
832782051613680256 13738 -23322 -5215 -512890
832782051631894400 14060 -22924 -5168 -512858
832782051650108672 14309 -22646 -5170 -512848
832782051668322816 14442 -22461 -5164 -512875
832782051686536960 14610 -22379 -5167 -512933
832782051704751104 14759 -22267 -5170 -512863
832782051722965248 14744 -22238 -5216 -512891
832782051741179392 14787 -22156 -5143 -512855
832782051759393536 14864 -22144 -5197 -512904
832782051777607680 14969 -22018 -5214 -512886
832782051795821952 15162 -21772 -5158 -512875
832782051814036096 15467 -21496 -5135 -512863
832782051832250240 15744 -21273 -5185 -512886
832782051850464384 16078 -20958 -5178 -512852
832782051868678528 16245 -20728 -5136 -512899
832782051886892672 16461 -20556 -5138 -512889
832782051905106816 16341 -20662 -5227 -512899
832782051923320960 16113 -20913 -5211 -512876
832782051941535232 15701 -21350 -5153 -512863
832782051959749376 15122 -21821 -5138 -512915
832782051977963520 14561 -22403 -5207 -512870
832782051996177664 14011 -22874 -5202 -512928
832782052014391808 13565 -23414 -5203 -512940
832782052032605952 13230 -23648 -5214 -512895
832782052050820212 13109 -23818 -5175 -512931
832782052069033984 13167 -23782 -5168 -512898
832782052087247744 13346 -23587 -5132 -512885
832782052105461632 13545 -23370 -5133 -512816
832782052123675392 13897 -23094 -5196 -512846
832782052141889280 14191 -22802 -5157 -512833
832782052160103040 14431 -22526 -5212 -512877
832782052178316928 14574 -22386 -5219 -512841
832782052196530688 14652 -22249 -5169 -512868
832782052214744576 14795 -22190 -5166 -512814
832782052232958336 14828 -22216 -5150 -512860
832782052251172224 14835 -22167 -5139 -512886
832782052269385984 14955 -22043 -5138 -512847
832782052287599872 15076 -21904 -5152 -512898
832782052305813632 15275 -21703 -5164 -512892
832782052324027520 15581 -21359 -5202 -512921
832782052342241280 15903 -21092 -5184 -512822
832782052360455168 16248 -20710 -5214 -512863
832782052378668928 16441 -20480 -5152 -512845
832782052396882816 16407 -20537 -5187 -512851
832782052415096576 16273 -20713 -5151 -512915
832782052433310336 15898 -21106 -5108 -512873
832782052451524224 15413 -21536 -5191 -512879
832782052469737984 14871 -22040 -5116 -512838
832782052487951872 14293 -22662 -5173 -512842
832782052506165632 13843 -23077 -5152 -512784
832782052524379520 13428 -23511 -5179 -512848
832782052542593280 13337 -23635 -5239 -512803
832782052560807168 13258 -23765 -5219 -512856
832782052579020928 13281 -23705 -5225 -512894
832782052597234816 13561 -23521 -5147 -512842
832782052615448576 13789 -23293 -5209 -512842
832782052633662464 14054 -22947 -5122 -512856
832782052651876224 14274 -22680 -5076 -512839
832782052670090112 14511 -22485 -5134 -512839
832782052688303872 14732 -22330 -5143 -512867
832782052706517754 14752 -22204 -5138 -512847
832782052724731648 14764 -22170 -5159 -512835
832782052742945536 14820 -22173 -5169 -512878
832782052761159424 14867 -22121 -5157 -512853
832782052779373312 14990 -21974 -5176 -512858
832782052797587200 15157 -21784 -5222 -512886
832782052815801088 15438 -21519 -5150 -512932
832782052834014976 15783 -21155 -5184 -512903
832782052852228864 16065 -20907 -5184 -512918
832782052870442752 16348 -20631 -5161 -512881
832782052888656640 16455 -20514 -5135 -512903
832782052906870528 16363 -20638 -5252 -512935
832782052925084416 16093 -20804 -5168 -512894
832782052943298304 15642 -21287 -5186 -512905
832782052961512192 15105 -21862 -5196 -512921
832782052979726080 14577 -22344 -5172 -512885
832782052997939968 14006 -22912 -5142 -512882
832782053016153856 13577 -23376 -5164 -512886
832782053034367744 13230 -23754 -5207 -512952
832782053052581632 13134 -23850 -5156 -512901
832782053070795520 13216 -23748 -5123 -512809
832782053089009408 13306 -23649 -5192 -512884
832782053107223296 13582 -23376 -5180 -512880
832782053125437184 13892 -23123 -5164 -512846
832782053143651072 14247 -22796 -5125 -512874
832782053161864960 14472 -22502 -5142 -512825
832782053180078848 14673 -22307 -5159 -512739
832782053198292736 14736 -22215 -5164 -512856
832782053216506624 14734 -22187 -5139 -512882
832782053234720384 14725 -22223 -5144 -512901
832782053252934272 14828 -22108 -5128 -512845
832782053271148160 14964 -22006 -5138 -512871
832782053289362048 15101 -21938 -5194 -512896
832782053307575936 15404 -21601 -5119 -512844
832782053325789824 15661 -21277 -5165 -512916
832782053344003712 15937 -21029 -5163 -512905
832782053362217600 16221 -20714 -5174 -512881
832782053380431488 16502 -20515 -5145 -512882
832782053398645376 16445 -20488 -5114 -512844
832782053416859294 16194 -20696 -5161 -512864
832782053435073920 15828 -21081 -5150 -512895
832782053453288576 15346 -21592 -5156 -512853
832782053471503232 14731 -22186 -5202 -512850
832782053489717888 14215 -22704 -5115 -512858
832782053507932544 13789 -23158 -5136 -512869
832782053526147200 13434 -23588 -5174 -512891
832782053544361984 13255 -23703 -5144 -512811
832782053562576640 13145 -23738 -5216 -512829
832782053580791296 13285 -23710 -5186 -512889
832782053599005952 13485 -23470 -5181 -512887
832782053617220608 13811 -23109 -5143 -512828
832782053635435264 14108 -22838 -5169 -512867
832782053653649920 14307 -22656 -5148 -512903
832782053671864576 14490 -22434 -5123 -512855
832782053690079232 14684 -22242 -5152 -512848
832782053708293888 14721 -22188 -5225 -512914
832782053726508672 14757 -22158 -5207 -512914
832782053744723328 14756 -22201 -5193 -512932
832782053762937984 14916 -22131 -5138 -512925
832782053781152640 15005 -22050 -5191 -512879
832782053799367296 15228 -21845 -5167 -512863
832782053817581952 15447 -21422 -5177 -512895
832782053835796608 15802 -21156 -5181 -512885
832782053854011264 16118 -20861 -5145 -512893
832782053872225920 16341 -20567 -5161 -512857
832782053890440576 16384 -20524 -5153 -512919
832782053908655360 16323 -20607 -5153 -512881
832782053926870016 16049 -20962 -5168 -512857
832782053945084672 15648 -21379 -5207 -512875
832782053963299328 15057 -21901 -5197 -512886
832782053981513984 14504 -22468 -5138 -512888
832782053999728640 14067 -22997 -5138 -512806
832782054017943296 13694 -23339 -5182 -512891
832782054036157952 13334 -23654 -5175 -512890
832782054054372686 13208 -23836 -5156 -512885
832782054072586368 13252 -23761 -5235 -512893
832782054090800000 13396 -23652 -5180 -512881
832782054109013632 13606 -23371 -5239 -512909
832782054127227264 13909 -23038 -5176 -512890
832782054145441024 14251 -22750 -5122 -512872
832782054163654656 14439 -22559 -5219 -512887
832782054181868288 14650 -22380 -5169 -512864
832782054200081920 14779 -22292 -5149 -512841
832782054218295552 14785 -22246 -5224 -512901
832782054236509184 14782 -22191 -5205 -512899
832782054254722816 14794 -22164 -5148 -512860
832782054272936576 14952 -22000 -5161 -512831
832782054291150208 15098 -21836 -5162 -512828
832782054309363840 15381 -21579 -5139 -512816
832782054327577472 15642 -21290 -5168 -512826
832782054345791104 16029 -20972 -5115 -512859
832782054364004736 16315 -20695 -5121 -512809
832782054382218496 16511 -20474 -5108 -512801
832782054400432128 16465 -20537 -5168 -512873
832782054418645760 16282 -20701 -5157 -512827
832782054436859392 15858 -21115 -5122 -512912
832782054455073024 15270 -21730 -5218 -512932
832782054473286656 14747 -22219 -5213 -512865
832782054491500288 14273 -22758 -5142 -512860
832782054509714048 13857 -23245 -5157 -512894
832782054527927680 13494 -23521 -5185 -512870
832782054546141312 13328 -23743 -5160 -512858
832782054564354944 13241 -23789 -5150 -512865
832782054582568576 13311 -23696 -5191 -512891
832782054600782208 13500 -23503 -5198 -512828
832782054618995840 13807 -23193 -5107 -512889
832782054637209600 14144 -22868 -5083 -512869
832782054655423232 14445 -22605 -5127 -512838
832782054673636864 14562 -22460 -5149 -512826
832782054691850496 14690 -22322 -5115 -512862
832782054710064128 14759 -22191 -5143 -512844
832782054728277760 14844 -22161 -5162 -512820
832782054746491392 14889 -22086 -5092 -512816
832782054764705074 14955 -22054 -5123 -512838
832782054782917888 15089 -21865 -5123 -512771
832782054801130752 15288 -21668 -5131 -512812
832782054819343616 15566 -21435 -5141 -512865
832782054837556480 15806 -21083 -5176 -512889
832782054855769344 16138 -20787 -5097 -512853
832782054873982208 16362 -20574 -5172 -512807
832782054892195072 16510 -20481 -5078 -512812
832782054910407808 16348 -20568 -5100 -512827
832782054928620672 16040 -20901 -5155 -512816
832782054946833536 15558 -21400 -5162 -512824
832782054965046400 15029 -21972 -5138 -512837
832782054983259264 14463 -22574 -5210 -512844
832782055001472128 13952 -23065 -5186 -512850
832782055019684992 13585 -23451 -5136 -512881
832782055037897856 13389 -23577 -5176 -512882
832782055056110720 13175 -23756 -5177 -512865
832782055074323584 13192 -23704 -5184 -512867
832782055092536448 13438 -23518 -5194 -512864
832782055110749312 13691 -23272 -5200 -512859
832782055128962048 13966 -22983 -5142 -512877
832782055147174912 14205 -22691 -5160 -512820
832782055165387776 14494 -22520 -5104 -512839
832782055183600640 14611 -22404 -5207 -512872
832782055201813504 14713 -22275 -5122 -512888
832782055220026368 14742 -22215 -5131 -512872
832782055238239232 14725 -22246 -5178 -512897
832782055256452096 14805 -22160 -5192 -512875
832782055274664960 14970 -22053 -5185 -512844
832782055292877824 15152 -21933 -5170 -512856
832782055311090688 15317 -21675 -5209 -512911
832782055329303552 15745 -21307 -5157 -512915
832782055347516416 16046 -20972 -5121 -512932
832782055365729152 16381 -20648 -5102 -512838
832782055383942016 16465 -20530 -5196 -512894
832782055402154880 16406 -20592 -5175 -512846
832782055420367744 16217 -20788 -5190 -512867
832782055438580662 15828 -21182 -5130 -512788
832782055456793984 15280 -21700 -5113 -512827
832782055475007360 14669 -22259 -5147 -512891
832782055493220864 14137 -22776 -5123 -512869
832782055511434240 13646 -23296 -5183 -512886
832782055529647744 13429 -23569 -5134 -512865
832782055547861120 13277 -23750 -5123 -512875
832782055566074624 13225 -23782 -5111 -512877
832782055584288000 13296 -23676 -5155 -512897
832782055602501376 13524 -23449 -5185 -512871
832782055620714880 13827 -23090 -5146 -512910
832782055638928256 14094 -22890 -5197 -512916
832782055657141760 14393 -22596 -5155 -512814
832782055675355136 14530 -22444 -5247 -512871
832782055693568640 14694 -22291 -5227 -512869
832782055711782016 14704 -22284 -5255 -512880
832782055729995392 14767 -22228 -5180 -512880
832782055748208896 14798 -22213 -5201 -512873
832782055766422272 14839 -22171 -5190 -512909
832782055784635776 15025 -22010 -5259 -512902
832782055802849152 15288 -21713 -5149 -512898
832782055821062656 15653 -21454 -5142 -512864
832782055839276032 15916 -21079 -5147 -512863
832782055857489408 16195 -20790 -5160 -512842
832782055875702912 16465 -20623 -5168 -512810
832782055893916288 16522 -20583 -5168 -512853
832782055912129792 16324 -20643 -5202 -512864
832782055930343168 15973 -20989 -5172 -512825
832782055948556672 15517 -21452 -5177 -512835
832782055966770048 14957 -22065 -5148 -512879
832782055984983552 14369 -22652 -5236 -512850
832782056003196928 13926 -22993 -5159 -512853
832782056021410304 13493 -23414 -5187 -512873
832782056039623808 13275 -23688 -5185 -512894
832782056057837184 13219 -23734 -5175 -512904
832782056076050688 13250 -23788 -5215 -512890
832782056094264064 13456 -23570 -5202 -512876
832782056112477616 13720 -23341 -5168 -512902
832782056130691200 14038 -22984 -5134 -512854
832782056148904832 14303 -22716 -5147 -512877
832782056167118592 14470 -22470 -5130 -512854
832782056185332224 14619 -22398 -5173 -512884
832782056203545856 14772 -22197 -5140 -512846
832782056221759616 14777 -22207 -5169 -512881
832782056239973248 14808 -22137 -5115 -512902
832782056258187008 14846 -22136 -5243 -512939
832782056276400640 14989 -22073 -5216 -512908
832782056294614272 15142 -21878 -5168 -512877
832782056312828032 15419 -21561 -5175 -512857
832782056331041664 15751 -21263 -5177 -512828
832782056349255296 16045 -20973 -5174 -512811
832782056367469056 16318 -20733 -5250 -512905
832782056385682688 16534 -20495 -5141 -512836
832782056403896320 16468 -20582 -5218 -512898
832782056422110080 16179 -20837 -5198 -512848
832782056440323712 15758 -21307 -5180 -512860
832782056458537472 15209 -21752 -5142 -512876
832782056476751104 14652 -22326 -5129 -512828
832782056494964736 14164 -22910 -5176 -512871
832782056513178496 13754 -23218 -5169 -512894
832782056531392128 13407 -23558 -5164 -512843
832782056549605760 13242 -23763 -5197 -512848
832782056567819520 13206 -23799 -5149 -512871
832782056586033152 13405 -23617 -5187 -512825
832782056604246784 13586 -23393 -5122 -512902
832782056622460544 13901 -23075 -5080 -512826
832782056640674176 14128 -22803 -5123 -512872
832782056658887936 14414 -22635 -5185 -512874
832782056677101568 14566 -22384 -5167 -512908
832782056695315200 14702 -22253 -5075 -512812
832782056713528960 14791 -22225 -5184 -512859
832782056731742592 14789 -22216 -5211 -512937
832782056749956224 14839 -22173 -5217 -512844
832782056768169984 14943 -22107 -5195 -512862
832782056786383722 15110 -21922 -5145 -512836
832782056804596864 15334 -21715 -5160 -512882
832782056822809984 15566 -21383 -5138 -512860
832782056841023104 15922 -21080 -5118 -512863
832782056859236352 16209 -20741 -5161 -512927
832782056877449472 16392 -20541 -5181 -512916
832782056895662592 16488 -20548 -5212 -512873
832782056913875712 16370 -20683 -5166 -512887
832782056932088832 16019 -20940 -5152 -512852
832782056950301952 15417 -21522 -5200 -512932
832782056968515200 14881 -22064 -5146 -512891
832782056986728320 14379 -22694 -5228 -512822
832782057004941440 13915 -23112 -5241 -512838
832782057023154560 13589 -23450 -5182 -512892
832782057041367680 13276 -23632 -5207 -512887
832782057059580800 13198 -23810 -5228 -512875
832782057077794048 13280 -23652 -5181 -512896
832782057096007168 13518 -23494 -5210 -512867
832782057114220288 13704 -23221 -5215 -512913
832782057132433408 13999 -22903 -5166 -512816
832782057150646528 14306 -22598 -5134 -512820
832782057168859776 14533 -22430 -5149 -512768
832782057187072896 14645 -22277 -5166 -512855
832782057205286016 14716 -22207 -5145 -512858
832782057223499136 14733 -22245 -5241 -512869
832782057241712256 14797 -22231 -5226 -512875
832782057259925376 14882 -22147 -5220 -512881
832782057278138624 15022 -21983 -5224 -512825
832782057296351744 15138 -21792 -5183 -512846
832782057314564864 15477 -21539 -5165 -512876
832782057332777984 15745 -21215 -5231 -512924
832782057350991104 16075 -20857 -5175 -512912
832782057369204224 16376 -20582 -5249 -512892
832782057387417472 16508 -20490 -5219 -512927
832782057405630592 16409 -20599 -5220 -512838
832782057423843712 16173 -20814 -5160 -512881
832782057442056850 15762 -21290 -5190 -512877
832782057460270592 15234 -21833 -5145 -512836
832782057478484352 14616 -22394 -5175 -512875
832782057496698240 14057 -22963 -5186 -512871
832782057514912000 13681 -23378 -5117 -512845
832782057533125760 13352 -23662 -5088 -512871
832782057551339520 13195 -23782 -5142 -512888
832782057569553408 13219 -23747 -5174 -512906
832782057587767168 13327 -23671 -5173 -512936
832782057605980928 13579 -23426 -5151 -512885
832782057624194816 13950 -23034 -5150 -512842
832782057642408576 14213 -22785 -5190 -512822
832782057660622336 14455 -22559 -5134 -512829
832782057678836096 14563 -22403 -5194 -512890
832782057697049984 14668 -22259 -5169 -512890
832782057715263744 14767 -22170 -5156 -512868
832782057733477504 14816 -22239 -5125 -512833
832782057751691392 14783 -22196 -5186 -512909
832782057769905152 14898 -22086 -5149 -512845
832782057788118912 15064 -21888 -5143 -512858
832782057806332672 15341 -21693 -5127 -512859
832782057824546560 15617 -21396 -5219 -512870
832782057842760320 15965 -21016 -5196 -512835
832782057860974080 16254 -20706 -5128 -512818
832782057879187968 16450 -20466 -5148 -512835
832782057897401728 16529 -20500 -5126 -512859
832782057915615488 16264 -20738 -5170 -512890
832782057933829248 15905 -21092 -5168 -512875
832782057952043136 15449 -21559 -5145 -512881
832782057970256896 14842 -22129 -5194 -512879
832782057988470656 14361 -22569 -5152 -512803
832782058006684416 13811 -23161 -5209 -512837
832782058024898304 13498 -23493 -5141 -512789
832782058043112064 13282 -23689 -5143 -512854
832782058061325824 13214 -23809 -5136 -512839
832782058079539718 13254 -23685 -5177 -512817
832782058097751680 13483 -23415 -5165 -512808
832782058115963648 13786 -23210 -5167 -512843
832782058134175744 14117 -22907 -5213 -512870
832782058152387712 14337 -22677 -5203 -512860
832782058170599680 14576 -22461 -5123 -512831
832782058188811776 14670 -22334 -5203 -512870
832782058207023744 14731 -22215 -5139 -512843
832782058225235712 14749 -22214 -5183 -512846
832782058243447680 14812 -22181 -5148 -512829
832782058261659776 14881 -22160 -5172 -512814
832782058279871744 14971 -22047 -5193 -512841
832782058298083712 15192 -21806 -5122 -512816
832782058316295808 15485 -21494 -5210 -512835
832782058334507776 15791 -21214 -5149 -512842
832782058352719744 16057 -20956 -5167 -512892
832782058370931840 16340 -20608 -5221 -512840
832782058389143808 16533 -20527 -5176 -512824
832782058407355776 16408 -20652 -5183 -512853
832782058425567872 16107 -20933 -5213 -512853
832782058443779840 15657 -21346 -5135 -512869
832782058461991808 15160 -21948 -5204 -512858
832782058480203904 14613 -22419 -5121 -512840
832782058498415872 14003 -22999 -5143 -512852
832782058516627840 13610 -23420 -5094 -512871
832782058534839808 13382 -23695 -5166 -512850
832782058553051904 13193 -23841 -5192 -512876
832782058571263872 13234 -23794 -5201 -512950
832782058589475840 13386 -23635 -5165 -512931
832782058607687936 13691 -23354 -5124 -512881
832782058625899904 13985 -23054 -5130 -512895
832782058644111872 14239 -22769 -5093 -512853
832782058662323968 14495 -22533 -5128 -512843
832782058680535936 14613 -22366 -5124 -512918
832782058698747904 14691 -22300 -5170 -512882
832782058716960000 14744 -22279 -5208 -512870
832782058735171968 14778 -22196 -5183 -512812
832782058753383936 14853 -22147 -5113 -512873
832782058771595904 14914 -22052 -5197 -512868
832782058789808018 15200 -21816 -5130 -512821
832782058808020096 15371 -21623 -5124 -512857
832782058826232192 15563 -21318 -5160 -512851
832782058844444160 15949 -21036 -5230 -512911
832782058862656256 16297 -20649 -5175 -512821
832782058880868224 16523 -20519 -5183 -512837
832782058899080320 16488 -20620 -5225 -512881
832782058917292288 16252 -20690 -5172 -512862
832782058935504384 15919 -21008 -5090 -512851
832782058953716480 15343 -21554 -5212 -512839
832782058971928448 14803 -22122 -5177 -512826
832782058990140544 14217 -22759 -5151 -512863
832782059008352512 13828 -23220 -5083 -512818
832782059026564608 13411 -23566 -5156 -512877
832782059044776576 13215 -23830 -5190 -512876
832782059062988672 13193 -23834 -5165 -512880
832782059081200640 13334 -23765 -5200 -512856
832782059099412736 13509 -23502 -5191 -512858
832782059117624832 13815 -23163 -5110 -512833
832782059135836800 14132 -22928 -5142 -512907
832782059154048896 14321 -22676 -5216 -512901
832782059172260864 14541 -22449 -5160 -512921
832782059190472960 14733 -22281 -5168 -512920
832782059208684928 14750 -22226 -5153 -512907
832782059226897024 14798 -22184 -5139 -512896
832782059245109120 14721 -22205 -5166 -512858
832782059263321088 14844 -22116 -5159 -512837
832782059281533184 14993 -21942 -5143 -512857
832782059299745152 15193 -21775 -5153 -512839
832782059317957248 15504 -21536 -5185 -512926
832782059336169216 15835 -21224 -5228 -512858
832782059354381312 16158 -20881 -5194 -512879
832782059372593408 16440 -20623 -5207 -512871
832782059390805376 16487 -20530 -5202 -512916
832782059409017472 16326 -20667 -5200 -512894
832782059427229440 16090 -20947 -5197 -512854
832782059445441474 15620 -21419 -5172 -512835
832782059463655552 15087 -21996 -5164 -512876
832782059481869568 14533 -22488 -5203 -512905
832782059500083456 13977 -23051 -5187 -512874
832782059518297472 13560 -23476 -5161 -512857
832782059536511360 13287 -23699 -5136 -512855
832782059554725376 13223 -23811 -5164 -512820
832782059572939392 13208 -23759 -5199 -512876
832782059591153280 13432 -23535 -5180 -512858
832782059609367296 13679 -23348 -5147 -512845
832782059627581312 13966 -22983 -5173 -512937
832782059645795200 14175 -22752 -5136 -512898
832782059664009216 14503 -22426 -5147 -512875
832782059682223104 14646 -22330 -5145 -512897
832782059700437120 14713 -22226 -5155 -512938
832782059718651136 14724 -22246 -5132 -512895
832782059736865024 14754 -22240 -5164 -512859
832782059755079040 14861 -22177 -5176 -512843
832782059773293056 14917 -22074 -5153 -512848
832782059791506944 15097 -21895 -5178 -512896
832782059809720960 15340 -21631 -5200 -512916
832782059827934848 15714 -21322 -5136 -512808
832782059846148864 15976 -21010 -5210 -512850
832782059864362880 16236 -20791 -5208 -512910
832782059882576768 16525 -20547 -5083 -512848
832782059900790784 16419 -20567 -5195 -512858
832782059919004672 16165 -20798 -5185 -512860
832782059937218688 15852 -21190 -5178 -512820
832782059955432704 15270 -21631 -5148 -512888
832782059973646592 14747 -22198 -5147 -512877
832782059991860608 14185 -22778 -5152 -512856
832782060010074624 13726 -23242 -5228 -512856
832782060028288512 13500 -23543 -5229 -512901
832782060046502528 13311 -23714 -5109 -512841
832782060064716416 13254 -23806 -5117 -512836
832782060082930432 13333 -23745 -5183 -512861
832782060101144448 13626 -23489 -5161 -512870
832782060119358262 13913 -23167 -5169 -512899
832782060137572224 14140 -22928 -5158 -512890
832782060155786240 14401 -22565 -5162 -512870
832782060174000128 14538 -22400 -5123 -512878
832782060192214144 14640 -22282 -5109 -512843
832782060210428032 14791 -22261 -5180 -512878
832782060228642048 14784 -22227 -5130 -512885
832782060246856064 14846 -22127 -5083 -512869
832782060265069952 14869 -22109 -5091 -512839
832782060283283968 15051 -21903 -5088 -512823
832782060301497984 15208 -21704 -5207 -512813
832782060319711872 15567 -21387 -5160 -512839
832782060337925888 15879 -21098 -5169 -512874
832782060356139776 16179 -20840 -5176 -512858
832782060374353792 16389 -20625 -5139 -512893
832782060392567808 16502 -20485 -5142 -512863
832782060410781696 16438 -20593 -5124 -512869
832782060428995712 16091 -20951 -5140 -512864
832782060447209728 15537 -21485 -5173 -512867
832782060465423616 15052 -22019 -5123 -512810
832782060483637632 14441 -22613 -5159 -512835
832782060501851520 13897 -23050 -5163 -512914
832782060520065536 13484 -23419 -5149 -512862
832782060538279552 13274 -23702 -5151 -512842
832782060556493440 13155 -23744 -5139 -512853
832782060574707456 13260 -23725 -5138 -512870
832782060592921344 13440 -23507 -5144 -512851
832782060611135360 13718 -23283 -5101 -512820
832782060629349376 14023 -23006 -5161 -512851
832782060647563264 14359 -22703 -5114 -512814
832782060665777280 14595 -22493 -5146 -512820
832782060683991296 14684 -22331 -5151 -512831
832782060702205184 14742 -22259 -5146 -512853
832782060720419200 14773 -22193 -5159 -512857
832782060738633088 14812 -22111 -5106 -512823
832782060756847104 14838 -22184 -5190 -512875
832782060775061120 14977 -22006 -5212 -512882
832782060793275050 15172 -21914 -5187 -512829
832782060811488128 15426 -21607 -5160 -512872
832782060829701248 15752 -21325 -5174 -512864
832782060847914368 16097 -20956 -5170 -512899
832782060866127616 16309 -20651 -5170 -512857
832782060884340736 16526 -20480 -5123 -512840
832782060902553856 16441 -20538 -5185 -512864
832782060920766976 16217 -20754 -5145 -512837
832782060938980096 15851 -21136 -5139 -512800
832782060957193216 15290 -21680 -5158 -512795
832782060975406464 14710 -22277 -5129 -512852
832782060993619584 14284 -22726 -5175 -512867
832782061011832704 13799 -23232 -5109 -512848
832782061030045824 13352 -23574 -5139 -512890
832782061048258944 13182 -23785 -5144 -512873
832782061066472064 13125 -23781 -5136 -512921
832782061084685312 13318 -23679 -5186 -512837
832782061102898432 13598 -23407 -5130 -512909
832782061121111552 13862 -23186 -5216 -512897
832782061139324672 14119 -22941 -5226 -512898
832782061157537792 14363 -22598 -5190 -512903
832782061175751040 14583 -22407 -5149 -512855
832782061193964160 14710 -22335 -5196 -512878
832782061212177280 14745 -22181 -5114 -512841
832782061230390400 14825 -22222 -5128 -512821
832782061248603520 14799 -22228 -5175 -512859
832782061266816640 14892 -22092 -5160 -512911
832782061285029888 15041 -21968 -5168 -512885
832782061303243008 15277 -21730 -5166 -512812
832782061321456128 15568 -21434 -5170 -512811
832782061339669248 15906 -21137 -5184 -512845
832782061357882368 16273 -20781 -5122 -512789
832782061376095488 16491 -20559 -5144 -512831
832782061394308736 16528 -20501 -5183 -512839
832782061412521856 16416 -20631 -5102 -512793
832782061430734976 16002 -20979 -5146 -512831
832782061448948178 15502 -21450 -5166 -512839
832782061467161984 14936 -22009 -5165 -512913
832782061485375744 14356 -22573 -5081 -512896
832782061503589632 14016 -22969 -5123 -512860
832782061521803392 13542 -23426 -5166 -512887
832782061540017152 13292 -23697 -5173 -512869
832782061558230912 13272 -23830 -5190 -512862
832782061576444800 13275 -23695 -5201 -512914
832782061594658560 13470 -23474 -5212 -512859
832782061612872320 13728 -23293 -5185 -512863
832782061631086208 14006 -23004 -5169 -512885
832782061649299968 14313 -22688 -5160 -512881
832782061667513728 14487 -22508 -5172 -512908
832782061685727488 14669 -22265 -5161 -512854
832782061703941376 14757 -22208 -5144 -512828
832782061722155136 14772 -22177 -5170 -512872
832782061740368896 14822 -22199 -5177 -512895
832782061758582784 14817 -22119 -5170 -512894
832782061776796544 14993 -21937 -5135 -512845
832782061795010304 15199 -21810 -5138 -512884
832782061813224064 15493 -21489 -5092 -512839
832782061831437952 15782 -21255 -5132 -512882
832782061849651712 16078 -20915 -5152 -512878
832782061867865472 16331 -20671 -5192 -512894
832782061886079360 16503 -20469 -5115 -512891
832782061904293120 16412 -20584 -5163 -512913
832782061922506880 16184 -20824 -5083 -512841
832782061940720640 15672 -21205 -5191 -512873
832782061958934528 15156 -21730 -5190 -512888
832782061977148288 14646 -22298 -5107 -512885
832782061995362048 14105 -22839 -5115 -512847
832782062013575808 13755 -23177 -5179 -512842
832782062031789696 13367 -23617 -5183 -512856
832782062050003456 13158 -23848 -5192 -512912
832782062068217216 13186 -23815 -5170 -512867
832782062086431046 13313 -23600 -5146 -512899
832782062104644224 13543 -23449 -5186 -512922
832782062122857344 13822 -23164 -5234 -512936
832782062141070464 14139 -22868 -5187 -512914
832782062159283584 14423 -22594 -5165 -512875
832782062177496576 14601 -22361 -5136 -512882
832782062195709696 14693 -22297 -5172 -512890
832782062213922816 14719 -22243 -5114 -512906
832782062232135936 14754 -22287 -5184 -512899
832782062250349056 14830 -22215 -5098 -512891
832782062268562176 14866 -22148 -5157 -512876
832782062286775296 15030 -21972 -5147 -512935
832782062304988416 15279 -21759 -5174 -512873
832782062323201408 15558 -21408 -5209 -512885
832782062341414528 15906 -21124 -5202 -512927
832782062359627648 16192 -20752 -5196 -512919
832782062377840768 16436 -20567 -5218 -512898
832782062396053888 16452 -20614 -5249 -512932
832782062414267008 16280 -20736 -5246 -512926
832782062432480128 15915 -21084 -5211 -512930
832782062450693248 15367 -21625 -5254 -512921
832782062468906240 14891 -22131 -5163 -512844
832782062487119360 14328 -22698 -5158 -512928
832782062505332480 13793 -23185 -5153 -512948
832782062523545600 13596 -23486 -5227 -512897
832782062541758720 13243 -23733 -5202 -512863
832782062559971840 13219 -23886 -5231 -512935
832782062578184960 13218 -23771 -5194 -512906
832782062596397952 13391 -23559 -5227 -512876
832782062614611072 13736 -23303 -5169 -512858
832782062632824192 14002 -22962 -5227 -512850
832782062651037312 14288 -22671 -5193 -512886
832782062669250432 14470 -22514 -5197 -512950
832782062687463552 14646 -22318 -5160 -512933
832782062705676672 14712 -22246 -5158 -512940
832782062723889792 14763 -22219 -5222 -512922
832782062742102784 14828 -22216 -5175 -512876
832782062760315904 14838 -22170 -5245 -512876
832782062778529024 14985 -22061 -5184 -512863
832782062796742074 15136 -21865 -5249 -512908
832782062814955008 15433 -21561 -5186 -512876
832782062833168000 15844 -21222 -5127 -512878
832782062851380992 16136 -20936 -5163 -512865
832782062869593984 16340 -20699 -5177 -512925
832782062887806848 16476 -20572 -5155 -512893
832782062906019840 16474 -20565 -5107 -512853
832782062924232832 16108 -20902 -5193 -512896
832782062942445824 15744 -21229 -5116 -512796
832782062960658816 15178 -21789 -5132 -512861
832782062978871808 14594 -22434 -5183 -512888
832782062997084800 14121 -22913 -5235 -512949
832782063015297664 13593 -23371 -5249 -512875
832782063033510656 13347 -23640 -5118 -512860
832782063051723648 13199 -23805 -5146 -512909
832782063069936640 13198 -23794 -5149 -512889
832782063088149632 13350 -23674 -5175 -512859
832782063106362624 13588 -23427 -5203 -512904
832782063124575488 13882 -23091 -5200 -512903
832782063142788480 14180 -22694 -5190 -512929
832782063161001472 14409 -22596 -5184 -512901
832782063179214464 14648 -22337 -5127 -512839
832782063197427456 14700 -22294 -5181 -512912
832782063215640448 14779 -22218 -5117 -512888
832782063233853440 14836 -22174 -5143 -512886
832782063252066304 14831 -22229 -5151 -512863
832782063270279296 14936 -22062 -5157 -512877
832782063288492288 15118 -21892 -5196 -512853
832782063306705280 15315 -21725 -5243 -512912
832782063324918272 15643 -21343 -5132 -512867
832782063343131264 15941 -21050 -5168 -512869
832782063361344256 16182 -20744 -5164 -512830
832782063379557120 16429 -20574 -5165 -512915
832782063397770112 16418 -20619 -5208 -512885
832782063415983104 16336 -20688 -5158 -512911
832782063434196096 15894 -21136 -5158 -512890
832782063452409098 15445 -21618 -5179 -512879
832782063470622592 14812 -22161 -5205 -512910
832782063488836096 14276 -22758 -5210 -512854
832782063507049728 13872 -23163 -5198 -512859
832782063525263232 13421 -23567 -5222 -512939
832782063543476864 13236 -23783 -5157 -512910
832782063561690368 13211 -23816 -5124 -512875
832782063579903872 13258 -23736 -5130 -512918
832782063598117504 13426 -23520 -5172 -512958
832782063616331008 13761 -23218 -5178 -512937
832782063634544640 13984 -23040 -5235 -512949
832782063652758144 14330 -22742 -5190 -512963
832782063670971648 14496 -22497 -5152 -512912
832782063689185280 14666 -22391 -5193 -512877
832782063707398784 14699 -22296 -5178 -512895
832782063725612416 14713 -22339 -5228 -512882
832782063743825920 14819 -22185 -5210 -512890
832782063762039424 14906 -22141 -5190 -512871
832782063780253056 15008 -22030 -5238 -512873
832782063798466560 15189 -21797 -5209 -512877
832782063816680192 15490 -21501 -5214 -512827
832782063834893696 15804 -21208 -5158 -512845
832782063853107200 16178 -20906 -5135 -512859
832782063871320832 16360 -20680 -5182 -512872
832782063889534336 16465 -20571 -5179 -512852
832782063907747968 16314 -20678 -5233 -512874
832782063925961472 16077 -20918 -5210 -512875
832782063944174976 15650 -21365 -5141 -512792
832782063962388608 15132 -21926 -5170 -512826
832782063980602112 14503 -22481 -5215 -512916
832782063998815744 14123 -22879 -5194 -512931
832782064017029248 13651 -23386 -5198 -512872
832782064035242752 13370 -23653 -5224 -512870
832782064053456384 13142 -23847 -5179 -512907
832782064071669888 13280 -23826 -5197 -512909
832782064089883392 13342 -23723 -5224 -512933
832782064108097024 13601 -23374 -5204 -512875
832782064126310626 13862 -23073 -5213 -512935
832782064144524800 14264 -22732 -5149 -512848
832782064162738944 14496 -22568 -5184 -512939
832782064180953088 14648 -22391 -5173 -512907
832782064199167232 14693 -22317 -5239 -512899
832782064217381376 14789 -22260 -5150 -512879
832782064235595520 14796 -22309 -5183 -512941
832782064253809536 14813 -22241 -5213 -512971
832782064272023680 14965 -22083 -5216 -512898
832782064290237824 15131 -21900 -5210 -512942
832782064308451968 15381 -21662 -5208 -512910
832782064326666112 15704 -21368 -5173 -512844
832782064344880256 15993 -21032 -5222 -512876
832782064363094400 16300 -20744 -5182 -512865
832782064381308544 16541 -20549 -5121 -512828
832782064399522688 16462 -20632 -5148 -512903
832782064417736832 16222 -20836 -5229 -512846
832782064435950976 15809 -21208 -5155 -512902
832782064454164992 15375 -21601 -5109 -512844
832782064472379136 14786 -22214 -5123 -512902
832782064490593280 14204 -22770 -5153 -512892
832782064508807424 13771 -23242 -5160 -512867
832782064527021568 13421 -23605 -5150 -512848
832782064545235712 13243 -23829 -5177 -512863
832782064563449856 13194 -23854 -5156 -512908
832782064581664000 13298 -23727 -5122 -512873
832782064599878144 13487 -23520 -5241 -512877
832782064618092288 13800 -23279 -5187 -512912
832782064636306432 14108 -22945 -5164 -512838
832782064654520448 14388 -22636 -5170 -512882
832782064672734592 14569 -22455 -5146 -512894
832782064690948736 14684 -22316 -5166 -512846
832782064709162880 14718 -22258 -5150 -512914
832782064727377024 14807 -22193 -5161 -512921
832782064745591168 14769 -22226 -5216 -512936
832782064763805312 14850 -22105 -5172 -512872
832782064782019456 14973 -21997 -5245 -512913
832782064800233518 15224 -21728 -5195 -512891
832782064818448128 15519 -21478 -5139 -512915
832782064836662784 15778 -21144 -5219 -512851
832782064854877440 16131 -20819 -5181 -512897
832782064873092096 16366 -20621 -5241 -512932
832782064891306752 16505 -20571 -5205 -512893
832782064909521408 16376 -20643 -5121 -512886
832782064927736192 16007 -20943 -5118 -512920
832782064945950848 15569 -21403 -5127 -512943
832782064964165504 15018 -21931 -5115 -512919
832782064982380160 14538 -22506 -5153 -512880
832782065000594816 13926 -23101 -5197 -512899
832782065018809472 13677 -23356 -5162 -512862
832782065037024128 13357 -23679 -5158 -512859
832782065055238784 13206 -23794 -5198 -512890
832782065073453440 13298 -23795 -5142 -512932
832782065091668096 13384 -23673 -5208 -512929
832782065109882880 13600 -23410 -5224 -512947
832782065128097536 13935 -23065 -5215 -512914
832782065146312192 14253 -22796 -5238 -512919
832782065164526848 14439 -22615 -5193 -512946
832782065182741504 14636 -22454 -5193 -512915
832782065200956160 14790 -22261 -5174 -512901
832782065219170816 14816 -22249 -5179 -512895
832782065237385472 14783 -22235 -5202 -512908
832782065255600128 14798 -22171 -5255 -512966
832782065273814784 14935 -22092 -5161 -512943
832782065292029568 15181 -21886 -5134 -512870
832782065310244224 15394 -21669 -5211 -512884
832782065328458880 15653 -21377 -5191 -512890
832782065346673536 15990 -21088 -5203 -512923
832782065364888192 16288 -20751 -5194 -512960
832782065383102848 16431 -20537 -5181 -512875
832782065401317504 16414 -20658 -5200 -512901
832782065419532160 16218 -20819 -5201 -512912
832782065437746816 15789 -21201 -5247 -512895
832782065455961578 15257 -21759 -5225 -512912
832782065474172288 14769 -22362 -5238 -512873
832782065492382976 14151 -22845 -5253 -512886
832782065510593792 13690 -23303 -5247 -512910
832782065528804480 13492 -23549 -5202 -512886
832782065547015296 13238 -23736 -5190 -512905
832782065565225984 13167 -23858 -5230 -512898
832782065583436800 13302 -23713 -5177 -512913
832782065601647488 13537 -23438 -5144 -512847
832782065619858304 13837 -23248 -5163 -512947
832782065638068992 14148 -22856 -5169 -512893
832782065656279680 14386 -22585 -5158 -512906
832782065674490496 14547 -22455 -5183 -512929
832782065692701184 14687 -22271 -5139 -512868
832782065710912000 14725 -22278 -5195 -512867
832782065729122688 14752 -22271 -5233 -512895
832782065747333504 14755 -22168 -5258 -512903
832782065765544192 14862 -22136 -5200 -512907
832782065783754880 15018 -21960 -5162 -512962
832782065801965696 15234 -21769 -5232 -512867
832782065820176384 15553 -21459 -5202 -512872
832782065838387200 15845 -21150 -5261 -512936
832782065856597888 16134 -20856 -5267 -512911
832782065874808704 16395 -20617 -5203 -512907
832782065893019392 16426 -20510 -5207 -512962
832782065911230208 16334 -20673 -5198 -512893
832782065929440896 15978 -21037 -5267 -512955
832782065947651584 15603 -21461 -5230 -512908
832782065965862400 14952 -22020 -5208 -512877
832782065984073088 14542 -22529 -5213 -512912
832782066002283904 13941 -23128 -5260 -512903
832782066020494592 13526 -23476 -5232 -512926
832782066038705408 13203 -23819 -5248 -512958
832782066056916096 13133 -23844 -5165 -512928
832782066075126912 13197 -23813 -5150 -512862
832782066093337630 13396 -23644 -5202 -512846
832782066111548928 13691 -23387 -5230 -512903
832782066129760256 13968 -23066 -5201 -512926
832782066147971712 14271 -22827 -5208 -512964
832782066166183040 14473 -22511 -5205 -512882
832782066184394496 14649 -22382 -5221 -512889
832782066202605824 14771 -22342 -5271 -512920
832782066220817280 14857 -22289 -5232 -512837
832782066239028608 14817 -22264 -5253 -512870
832782066257239936 14817 -22180 -5242 -512886
832782066275451392 14973 -22135 -5207 -512927
832782066293662720 15147 -21954 -5177 -512894
832782066311874176 15368 -21640 -5249 -512870
832782066330085504 15716 -21383 -5210 -512925
832782066348296832 16021 -20994 -5176 -512874
832782066366508288 16306 -20746 -5159 -512871
832782066384719616 16425 -20548 -5231 -512897
832782066402931072 16441 -20552 -5139 -512889
832782066421142400 16130 -20824 -5182 -512908
832782066439353856 15712 -21242 -5173 -512926
832782066457565184 15152 -21814 -5228 -512923
832782066475776512 14663 -22354 -5194 -512928
832782066493987968 14205 -22815 -5231 -513000
832782066512199296 13710 -23325 -5239 -512906
832782066530410752 13363 -23681 -5210 -512905
832782066548622080 13170 -23884 -5250 -512963
832782066566833536 13186 -23847 -5162 -512896
832782066585044864 13298 -23767 -5165 -512930
832782066603256192 13528 -23561 -5194 -512909
832782066621467648 13850 -23229 -5211 -512846
832782066639678976 14097 -22919 -5186 -512890
832782066657890432 14381 -22631 -5198 -512897
832782066676101760 14572 -22442 -5233 -512946
832782066694313088 14686 -22393 -5221 -512925
832782066712524544 14754 -22290 -5212 -512908
832782066730735872 14797 -22280 -5244 -512946
832782066748947328 14824 -22311 -5205 -512901
832782066767158656 14883 -22160 -5186 -512879
832782066785370112 14989 -22017 -5209 -512899
832782066803581520 15256 -21813 -5222 -512888
832782066821794688 15556 -21429 -5186 -512891
832782066840007808 15879 -21131 -5148 -512886
832782066858220928 16219 -20834 -5184 -512925
832782066876434176 16478 -20609 -5180 -512875
832782066894647296 16491 -20565 -5248 -512947
832782066912860416 16304 -20697 -5214 -512915
832782066931073536 15957 -21064 -5214 -512962
832782066949286656 15448 -21529 -5228 -512920
832782066967499776 14910 -22042 -5169 -512941
832782066985713024 14385 -22573 -5138 -512936
832782067003926144 13994 -22993 -5119 -512851
832782067022139264 13520 -23415 -5173 -512893
832782067040352384 13259 -23678 -5209 -512905
832782067058565504 13191 -23808 -5136 -512887
832782067076778624 13227 -23789 -5197 -512893
832782067094991872 13434 -23630 -5192 -512910
832782067113204992 13715 -23325 -5169 -512859
832782067131418112 13991 -23030 -5211 -512877
832782067149631232 14284 -22769 -5211 -512846
832782067167844352 14523 -22512 -5222 -512926
832782067186057600 14632 -22334 -5190 -512919
832782067204270720 14735 -22264 -5150 -512943
832782067222483840 14796 -22186 -5178 -512882
832782067240696960 14801 -22173 -5201 -512910
832782067258910080 14871 -22110 -5187 -512871
832782067277123200 14977 -22065 -5133 -512847
832782067295336448 15162 -21847 -5187 -512906
832782067313549568 15461 -21579 -5205 -512889
832782067331762688 15743 -21250 -5143 -512850
832782067349975808 16051 -20905 -5158 -512891
832782067368188928 16363 -20700 -5135 -512880
832782067386402048 16540 -20525 -5156 -512888
832782067404615296 16432 -20558 -5186 -512864
832782067422828416 16203 -20890 -5199 -512841
832782067441041506 15725 -21288 -5174 -512863
832782067459254656 15198 -21815 -5133 -512891
832782067477467776 14630 -22376 -5200 -512882
832782067495680896 14088 -22912 -5210 -512880
832782067513894144 13670 -23369 -5216 -512907
832782067532107264 13316 -23681 -5221 -512867
832782067550320384 13181 -23823 -5148 -512857
832782067568533504 13197 -23802 -5158 -512940
832782067586746624 13370 -23649 -5150 -512857
832782067604959744 13581 -23382 -5147 -512925
832782067623172992 13901 -23204 -5230 -512895
832782067641386112 14217 -22852 -5179 -512882
832782067659599232 14475 -22585 -5151 -512893
832782067677812352 14561 -22449 -5161 -512945
832782067696025472 14717 -22377 -5191 -512902
832782067714238592 14770 -22301 -5194 -512925
832782067732451840 14756 -22224 -5153 -512916
832782067750664960 14799 -22161 -5164 -512854
832782067768878080 14859 -22142 -5264 -512930
832782067787091200 15066 -21928 -5224 -512932
832782067805304320 15367 -21751 -5214 -512903
832782067823517568 15564 -21474 -5265 -512925
832782067841730688 15913 -21096 -5176 -512905
832782067859943808 16227 -20787 -5168 -512953
832782067878156928 16419 -20547 -5179 -512916
832782067896370048 16441 -20540 -5164 -512945
832782067914583168 16246 -20795 -5221 -512915
832782067932796416 15934 -21066 -5182 -512886
832782067951009536 15412 -21573 -5169 -512911
832782067969222656 14888 -22041 -5161 -512890
832782067987435776 14292 -22657 -5175 -512853
832782068005648896 13816 -23185 -5190 -512927
832782068023862016 13578 -23431 -5210 -512911
832782068042075264 13227 -23741 -5224 -512915
832782068060288384 13166 -23808 -5156 -512867
832782068078501504 13285 -23690 -5156 -512826
832782068096714634 13426 -23601 -5232 -512886
832782068114927744 13726 -23344 -5192 -512860
832782068133140864 14063 -22986 -5178 -512826
832782068151353984 14388 -22685 -5192 -512840
832782068169567232 14550 -22501 -5163 -512850
832782068187780352 14694 -22384 -5217 -512863
832782068205993472 14755 -22265 -5210 -512887
832782068224206592 14777 -22245 -5145 -512865
832782068242419712 14753 -22253 -5221 -512895
832782068260632832 14815 -22180 -5131 -512906
832782068278846080 14971 -22039 -5122 -512863
832782068297059200 15174 -21846 -5157 -512847
832782068315272320 15441 -21542 -5170 -512870
832782068333485440 15800 -21230 -5150 -512838
832782068351698560 16158 -20884 -5211 -512869
832782068369911680 16409 -20669 -5228 -512904
832782068388124928 16519 -20542 -5148 -512911
832782068406338048 16359 -20693 -5173 -512877
832782068424551168 16147 -20898 -5126 -512890
832782068442764288 15654 -21342 -5172 -512888
832782068460977408 15194 -21833 -5144 -512925
832782068479190656 14578 -22382 -5161 -512891
832782068497403776 13995 -22915 -5123 -512966
832782068515616896 13609 -23408 -5230 -512864
832782068533830016 13360 -23585 -5225 -512941
832782068552043136 13197 -23757 -5215 -512945
832782068570256256 13202 -23810 -5205 -512902
832782068588469504 13336 -23642 -5211 -512924
832782068606682624 13615 -23410 -5178 -512914
832782068624895744 13884 -23111 -5207 -512899
832782068643108864 14154 -22856 -5232 -512943
832782068661321984 14393 -22654 -5196 -512991
832782068679535104 14512 -22510 -5235 -512960
832782068697748352 14663 -22350 -5207 -512910
832782068715961472 14729 -22309 -5179 -512912
832782068734174620 14770 -22262 -5170 -512878
832782068752388480 14767 -22279 -5237 -512893
832782068770602368 14901 -22099 -5201 -512894
832782068788816128 15060 -21955 -5194 -512863
832782068807030016 15360 -21728 -5196 -512947
832782068825243904 15657 -21424 -5218 -512905
832782068843457664 15977 -21073 -5148 -512921
832782068861671552 16266 -20786 -5195 -512914
832782068879885440 16496 -20558 -5237 -512890
832782068898099200 16395 -20588 -5184 -512928
832782068916313088 16252 -20837 -5196 -512877
832782068934526976 15874 -21133 -5211 -512868
832782068952740736 15396 -21618 -5161 -512852
832782068970954624 14786 -22222 -5241 -512867
832782068989168384 14411 -22608 -5148 -512867
832782069007382272 13827 -23197 -5209 -512898
832782069025596160 13481 -23587 -5181 -512859
832782069043809920 13245 -23754 -5167 -512875
832782069062023808 13128 -23808 -5146 -512836
832782069080237696 13298 -23730 -5172 -512903
832782069098451456 13469 -23489 -5226 -512908
832782069116665344 13798 -23191 -5146 -512874
832782069134879232 14061 -23008 -5161 -512914
832782069153092992 14359 -22683 -5136 -512838
832782069171306880 14571 -22480 -5183 -512870
832782069189520768 14634 -22347 -5187 -512903
832782069207734528 14691 -22332 -5231 -512959
832782069225948416 14780 -22295 -5210 -512863
832782069244162304 14799 -22206 -5226 -512877
832782069262376064 14848 -22125 -5224 -512879
832782069280589952 14966 -22039 -5241 -512903
832782069298803840 15209 -21825 -5146 -512913
832782069317017600 15513 -21545 -5143 -512925
832782069335231488 15797 -21206 -5219 -512901
832782069353445248 16126 -20942 -5268 -512901
832782069371659136 16367 -20688 -5208 -512904
832782069389873024 16471 -20496 -5196 -512853
832782069408086824 16339 -20652 -5166 -512902
832782069426300032 16040 -20949 -5192 -512928
832782069444513280 15627 -21385 -5186 -512840
832782069462726528 15061 -21894 -5108 -512925
832782069480939904 14555 -22417 -5183 -512902
832782069499153152 14096 -22893 -5163 -512888
832782069517366400 13646 -23356 -5172 -512844
832782069535579648 13268 -23749 -5182 -512906
832782069553792896 13231 -23871 -5139 -512814
832782069572006272 13203 -23780 -5177 -512830
832782069590219520 13356 -23646 -5220 -512882
832782069608432768 13601 -23456 -5311 -512931
832782069626646016 13932 -23146 -5220 -512908
832782069644859264 14240 -22820 -5166 -512901
832782069663072640 14508 -22539 -5122 -512862
832782069681285888 14611 -22428 -5209 -512897
832782069699499136 14744 -22345 -5182 -512862
832782069717712384 14808 -22235 -5160 -512865
832782069735925632 14850 -22189 -5201 -512918
832782069754139008 14886 -22143 -5172 -512875
832782069772352256 15006 -22013 -5144 -512867
832782069790565504 15140 -21891 -5230 -512907
832782069808778752 15317 -21682 -5170 -512904
832782069826992000 15675 -21343 -5211 -512842
832782069845205376 16026 -21071 -5212 -512848
832782069863418624 16278 -20711 -5213 -512846
832782069881631872 16482 -20517 -5214 -512851
832782069899845120 16494 -20578 -5185 -512845
832782069918058368 16296 -20848 -5212 -512880
832782069936271744 15838 -21220 -5218 -512914
832782069954484992 15317 -21691 -5217 -512931
832782069972698240 14762 -22241 -5175 -512935
832782069990911488 14293 -22813 -5177 -512916
832782070009124736 13872 -23125 -5215 -512897
832782070027337984 13486 -23518 -5177 -512869
832782070045551386 13263 -23782 -5170 -512869
832782070063764992 13198 -23798 -5210 -512874
832782070081978624 13289 -23745 -5205 -512896
832782070100192128 13560 -23511 -5183 -512879
832782070118405760 13779 -23187 -5125 -512901
832782070136619264 14142 -22889 -5098 -512887
832782070154832896 14384 -22667 -5179 -512928
832782070173046400 14554 -22457 -5164 -512876
832782070191260032 14690 -22340 -5173 -512864
832782070209473536 14732 -22273 -5192 -512895
832782070227687168 14762 -22270 -5211 -512858
832782070245900672 14788 -22224 -5127 -512843
832782070264114304 14926 -22067 -5148 -512862
832782070282327808 15030 -22003 -5172 -512862
832782070300541440 15208 -21762 -5144 -512889
832782070318755072 15509 -21498 -5180 -512908
832782070336968576 15842 -21187 -5148 -512873
832782070355182208 16189 -20870 -5186 -512918
832782070373395712 16477 -20598 -5172 -512871
832782070391609344 16420 -20541 -5232 -512864
832782070409822848 16305 -20638 -5218 -512898
832782070428036480 16047 -20957 -5173 -512916
832782070446249984 15630 -21428 -5175 -512878
832782070464463616 15097 -21982 -5162 -512902
832782070482677120 14539 -22554 -5084 -512869
832782070500890752 13952 -23050 -5192 -512886
832782070519104256 13653 -23382 -5208 -512927
832782070537317888 13380 -23712 -5149 -512867
832782070555531520 13211 -23871 -5168 -512892
832782070573745024 13225 -23791 -5202 -512937
832782070591958656 13418 -23629 -5153 -512856
832782070610172160 13660 -23392 -5190 -512889
832782070628385792 13881 -23089 -5205 -512919
832782070646599296 14217 -22754 -5144 -512870
832782070664812928 14377 -22578 -5203 -512877
832782070683026432 14640 -22334 -5162 -512870
832782070701240064 14720 -22315 -5181 -512893
832782070719453568 14720 -22270 -5205 -512916
832782070737667200 14764 -22202 -5181 -512901
832782070755880726 14814 -22152 -5201 -512919
832782070774095104 15003 -22051 -5114 -512855
832782070792309504 15158 -21897 -5215 -512870
832782070810523904 15418 -21584 -5165 -512878
832782070828738176 15727 -21320 -5214 -512896
832782070846952576 16031 -20967 -5049 -512872
832782070865166976 16263 -20692 -5161 -512908
832782070883381376 16518 -20500 -5115 -512884
832782070901595648 16522 -20505 -5110 -512877
832782070919810048 16257 -20778 -5157 -512905
832782070938024448 15819 -21192 -5110 -512821
832782070956238848 15294 -21702 -5113 -512845
832782070974453248 14736 -22293 -5098 -512887
832782070992667520 14189 -22835 -5142 -512884
832782071010881920 13732 -23277 -5197 -512872
832782071029096320 13387 -23622 -5158 -512867
832782071047310720 13226 -23801 -5159 -512877
832782071065524992 13255 -23794 -5160 -512862
832782071083739392 13301 -23725 -5208 -512886
832782071101953792 13567 -23502 -5196 -512868
832782071120168192 13858 -23233 -5224 -512959
832782071138382592 14133 -22908 -5159 -512863
832782071156596864 14370 -22665 -5198 -512899
832782071174811264 14597 -22445 -5175 -512859
832782071193025664 14730 -22253 -5157 -512845
832782071211240064 14763 -22344 -5182 -512888
832782071229454336 14850 -22143 -5146 -512861
832782071247668736 14844 -22161 -5153 -512894
832782071265883136 14935 -22087 -5191 -512851
832782071284097536 15091 -21955 -5185 -512838
832782071302311936 15293 -21754 -5215 -512862
832782071320526208 15556 -21546 -5229 -512865
832782071338740608 15893 -21217 -5192 -512929
832782071356955008 16246 -20849 -5207 -512873
832782071375169408 16415 -20602 -5190 -512902
832782071393383680 16484 -20535 -5169 -512913
832782071411598104 16338 -20756 -5178 -512888
832782071429812096 15976 -21121 -5230 -512950
832782071448026112 15540 -21502 -5160 -512881
832782071466240128 15012 -22019 -5225 -512842
832782071484454016 14486 -22607 -5147 -512888
832782071502668032 13932 -23073 -5202 -512945
832782071520882048 13522 -23503 -5164 -512926
832782071539096064 13254 -23721 -5205 -512903
832782071557310080 13190 -23793 -5168 -512888
832782071575523968 13254 -23724 -5184 -512824
832782071593737984 13441 -23607 -5182 -512858
832782071611952000 13645 -23372 -5267 -512892
832782071630166016 13972 -22989 -5158 -512887
832782071648380032 14242 -22762 -5201 -512945
832782071666593920 14558 -22522 -5182 -512912
832782071684807936 14688 -22326 -5104 -512904
832782071703021952 14704 -22281 -5167 -512909
832782071721235968 14742 -22233 -5101 -512905
832782071739449984 14831 -22238 -5165 -512845
832782071757663872 14868 -22147 -5193 -512882
832782071775877888 14921 -22055 -5207 -512915
832782071794091904 15135 -21879 -5141 -512912
832782071812305920 15400 -21587 -5209 -512938
832782071830519936 15731 -21277 -5186 -512915
832782071848733824 16068 -20935 -5124 -512841
832782071866947840 16362 -20641 -5214 -512902
832782071885161856 16530 -20512 -5225 -512872
832782071903375872 16422 -20565 -5142 -512899
832782071921589888 16200 -20813 -5158 -512877
832782071939803776 15769 -21205 -5211 -512841
832782071958017792 15226 -21725 -5184 -512912
832782071976231808 14693 -22248 -5198 -512870
832782071994445824 14112 -22864 -5191 -512927
832782072012659840 13675 -23334 -5195 -512887
832782072030873728 13337 -23712 -5177 -512879
832782072049087744 13158 -23772 -5199 -512873
832782072067301750 13195 -23815 -5209 -512872
832782072085515776 13295 -23688 -5196 -512924
832782072103729792 13523 -23482 -5196 -512894
832782072121943680 13820 -23186 -5194 -512868
832782072140157696 14095 -22962 -5246 -512895
832782072158371584 14430 -22666 -5184 -512893
832782072176585600 14656 -22455 -5198 -512891
832782072194799616 14720 -22351 -5178 -512941
832782072213013504 14780 -22273 -5222 -512916
832782072231227520 14768 -22306 -5282 -512937
832782072249441536 14808 -22205 -5209 -512877
832782072267655424 14899 -22054 -5204 -512909
832782072285869440 15010 -21979 -5203 -512879
832782072304083328 15244 -21784 -5177 -512920
832782072322297344 15574 -21429 -5162 -512824
832782072340511360 15921 -21161 -5187 -512870
832782072358725248 16190 -20834 -5185 -512854
832782072376939264 16399 -20631 -5249 -512898
832782072395153280 16454 -20604 -5217 -512898
832782072413367168 16280 -20721 -5276 -512859
832782072431581184 15957 -21055 -5226 -512898
832782072449795072 15473 -21555 -5245 -512920
832782072468009088 14881 -22137 -5235 -512919
832782072486223104 14327 -22677 -5251 -512897
832782072504436992 13937 -23037 -5234 -512959
832782072522651008 13513 -23509 -5228 -512892
832782072540864896 13234 -23832 -5238 -512851
832782072559078912 13149 -23846 -5208 -512941
832782072577292928 13198 -23827 -5254 -512948
832782072595506816 13428 -23550 -5182 -512903
832782072613720832 13724 -23323 -5208 -512940
832782072631934848 13981 -22998 -5213 -512940
832782072650148736 14275 -22731 -5212 -512898
832782072668362752 14530 -22548 -5183 -512858
832782072686576640 14664 -22332 -5235 -512924
832782072704790656 14660 -22324 -5208 -512824
832782072723004672 14729 -22223 -5220 -512899
832782072741218538 14791 -22239 -5232 -512887
832782072759432448 14871 -22158 -5187 -512856
832782072777646336 14966 -22036 -5214 -512893
832782072795860096 15200 -21857 -5216 -512879
832782072814073984 15476 -21612 -5275 -512882
832782072832287872 15749 -21226 -5161 -512913
832782072850501632 16051 -20977 -5176 -512874
832782072868715520 16354 -20672 -5184 -512915
832782072886929408 16543 -20520 -5167 -512862
832782072905143168 16428 -20608 -5161 -512876
832782072923357056 16161 -20914 -5157 -512893
832782072941570944 15693 -21351 -5179 -512925
832782072959784704 15193 -21865 -5213 -512910
832782072977998592 14610 -22384 -5181 -512907
832782072996212352 14042 -23004 -5301 -512910
832782073014426240 13721 -23310 -5264 -512909
832782073032640128 13353 -23679 -5252 -512911
832782073050853888 13148 -23853 -5238 -512964
832782073069067776 13230 -23880 -5183 -512965
832782073087281664 13363 -23676 -5228 -512888
832782073105495424 13604 -23419 -5197 -512879
832782073123709312 13830 -23215 -5220 -512929
832782073141923200 14123 -22872 -5182 -512860
832782073160136960 14396 -22606 -5211 -512879
832782073178350848 14581 -22372 -5252 -512940
832782073196564736 14718 -22277 -5184 -512915
832782073214778496 14756 -22230 -5215 -512909
832782073232992384 14822 -22209 -5167 -512886
832782073251206272 14820 -22225 -5152 -512911
832782073269420032 14885 -22103 -5218 -512875
832782073287633920 15026 -21955 -5151 -512887
832782073305847808 15336 -21730 -5140 -512896
832782073324061568 15593 -21493 -5244 -512918
832782073342275456 15908 -21079 -5191 -512945
832782073360489216 16216 -20763 -5157 -512930
832782073378703104 16423 -20585 -5152 -512946
832782073396916992 16408 -20575 -5161 -512932
832782073415130742 16209 -20775 -5212 -512918
832782073433344000 15938 -21107 -5170 -512890
832782073451557248 15419 -21612 -5168 -512901
832782073469770496 14857 -22202 -5143 -512908
832782073487983872 14353 -22731 -5187 -512919
832782073506197120 13862 -23222 -5184 -512903
832782073524410368 13430 -23576 -5180 -512930
832782073542623616 13253 -23813 -5167 -512905
832782073560836864 13180 -23880 -5170 -512896
832782073579050240 13279 -23709 -5130 -512862
832782073597263488 13515 -23495 -5165 -512845
832782073615476736 13722 -23324 -5173 -512935
832782073633689984 14081 -22953 -5133 -512876
832782073651903232 14335 -22711 -5134 -512826
832782073670116608 14499 -22491 -5167 -512879
832782073688329856 14686 -22325 -5153 -512879
832782073706543104 14736 -22269 -5159 -512930
832782073724756352 14796 -22178 -5177 -512834
832782073742969600 14838 -22161 -5140 -512843
832782073761182976 14878 -22176 -5182 -512907
832782073779396224 15009 -22052 -5180 -512940
832782073797609472 15151 -21829 -5155 -512942
832782073815822720 15463 -21613 -5222 -512932
832782073834035968 15775 -21221 -5162 -512882
832782073852249344 16087 -20944 -5202 -512926
832782073870462592 16420 -20670 -5179 -512878
832782073888675840 16474 -20548 -5195 -512897
832782073906889088 16386 -20628 -5221 -512907
832782073925102336 16079 -20951 -5216 -512929
832782073943315712 15708 -21339 -5152 -512826
832782073961528960 15120 -21864 -5169 -512885
832782073979742208 14677 -22282 -5159 -512908
832782073997955456 14155 -22963 -5199 -512911
832782074016168704 13613 -23530 -5209 -512956
832782074034381952 13363 -23826 -5211 -512880
832782074052595304 13157 -23853 -5197 -512873
832782074070809216 13167 -23849 -5234 -512881
832782074089023104 13370 -23671 -5211 -512877
832782074107237120 13593 -23402 -5255 -512884
832782074125451008 13977 -23109 -5219 -512886
832782074143664896 14182 -22868 -5201 -512955
832782074161878784 14449 -22636 -5224 -512908
832782074180092800 14644 -22421 -5151 -512902
832782074198306688 14732 -22254 -5172 -512881
832782074216520576 14806 -22201 -5243 -512922
832782074234734592 14848 -22256 -5226 -512856
832782074252948480 14874 -22188 -5271 -512874
832782074271162368 14949 -22103 -5147 -512910
832782074289376256 15096 -21933 -5156 -512889
832782074307590272 15328 -21681 -5242 -512926
832782074325804160 15656 -21429 -5218 -512937
832782074344018048 15974 -21041 -5156 -512896
832782074362232064 16227 -20769 -5142 -512887
832782074380445952 16522 -20555 -5122 -512841
832782074398659840 16471 -20597 -5114 -512837
832782074416873728 16294 -20741 -5111 -512867
832782074435087744 15874 -21156 -5130 -512861
832782074453301632 15386 -21642 -5185 -512887
832782074471515520 14796 -22201 -5124 -512871
832782074489729536 14315 -22687 -5197 -512924
832782074507943424 13832 -23157 -5144 -512898
832782074526157312 13352 -23589 -5211 -512926
832782074544371200 13199 -23792 -5162 -512929
832782074562585216 13147 -23874 -5233 -512966
832782074580799104 13301 -23775 -5155 -512942
832782074599012992 13446 -23576 -5213 -512948
832782074617227008 13809 -23234 -5174 -512922
832782074635440896 14023 -22927 -5182 -512889
832782074653654784 14293 -22668 -5238 -512892
832782074671868800 14518 -22483 -5212 -512897
832782074690082688 14681 -22381 -5232 -512944
832782074708296576 14726 -22340 -5238 -512952
832782074726510464 14813 -22301 -5221 -512885
832782074744724480 14813 -22255 -5250 -512919
832782074762938376 14909 -22174 -5184 -512890
832782074781152384 15027 -21969 -5187 -512845
832782074799366400 15227 -21833 -5185 -512888
832782074817580416 15517 -21481 -5211 -512894
832782074835794304 15818 -21201 -5231 -512899
832782074854008320 16145 -20906 -5244 -512896
832782074872222336 16417 -20678 -5198 -512895
832782074890436352 16519 -20542 -5124 -512829
832782074908650368 16358 -20615 -5163 -512861
832782074926864256 16027 -20990 -5232 -512888
832782074945078272 15593 -21428 -5165 -512876
832782074963292288 15051 -21970 -5191 -512913
832782074981506304 14544 -22495 -5179 -512870
832782074999720320 14074 -22879 -5177 -512896
832782075017934208 13587 -23341 -5153 -512885
832782075036148224 13352 -23671 -5163 -512890
832782075054362240 13165 -23828 -5249 -512858
832782075072576256 13148 -23819 -5202 -512898
832782075090790272 13365 -23601 -5170 -512838
832782075109004160 13620 -23408 -5245 -512894
832782075127218176 13918 -23095 -5216 -512842
832782075145432192 14199 -22844 -5250 -512933
832782075163646208 14487 -22622 -5193 -512923
832782075181860224 14675 -22399 -5182 -512904
832782075200074112 14678 -22282 -5227 -512912
832782075218288128 14771 -22266 -5194 -512945
832782075236502144 14816 -22266 -5162 -512926
832782075254716160 14851 -22164 -5187 -512887
832782075272930176 14902 -22090 -5215 -512919
832782075291144064 15113 -21906 -5143 -512887
832782075309358080 15347 -21656 -5157 -512850
832782075327572096 15698 -21311 -5170 -512863
832782075345786112 16002 -20963 -5146 -512852
832782075364000128 16235 -20651 -5152 -512876
832782075382214016 16520 -20475 -5109 -512885
832782075400428032 16462 -20567 -5201 -512910
832782075418642022 16246 -20799 -5160 -512895
832782075436855168 15852 -21166 -5116 -512847
832782075455068288 15333 -21665 -5201 -512922
832782075473281408 14754 -22257 -5238 -512977
832782075491494656 14237 -22816 -5193 -512906
832782075509707776 13755 -23255 -5143 -512879
832782075527920896 13396 -23598 -5160 -512890
832782075546134016 13195 -23793 -5231 -512923
832782075564347136 13185 -23864 -5201 -512948
832782075582560256 13291 -23742 -5192 -512902
832782075600773504 13517 -23498 -5174 -512850
832782075618986624 13849 -23154 -5166 -512810
832782075637199744 14040 -22939 -5253 -512886
832782075655412864 14317 -22659 -5179 -512927
832782075673625984 14601 -22420 -5161 -512921
832782075691839104 14718 -22332 -5217 -512905
832782075710052352 14748 -22236 -5253 -512959
832782075728265472 14786 -22233 -5207 -512927
832782075746478592 14800 -22237 -5148 -512911
832782075764691712 14897 -22170 -5133 -512907
832782075782904832 15036 -22042 -5167 -512895
832782075801118080 15250 -21809 -5202 -512967
832782075819331200 15507 -21513 -5152 -512941
832782075837544320 15852 -21198 -5205 -512888
832782075855757440 16155 -20837 -5169 -512826
832782075873970560 16468 -20566 -5133 -512865
832782075892183680 16436 -20538 -5170 -512851
832782075910396928 16328 -20642 -5208 -512888
832782075928610048 16005 -21015 -5215 -512971
832782075946823168 15602 -21456 -5229 -512944
832782075965036288 15009 -22013 -5179 -512931
832782075983249408 14500 -22623 -5142 -512858
832782076001462528 13987 -23067 -5211 -512879
832782076019675776 13535 -23539 -5235 -512940
832782076037888896 13244 -23744 -5205 -512903
832782076056102016 13216 -23851 -5202 -512907
832782076074315150 13220 -23815 -5199 -512887
832782076092528256 13387 -23603 -5197 -512958
832782076110741376 13661 -23407 -5238 -512894
832782076128954496 13913 -23123 -5193 -512912
832782076147167744 14265 -22819 -5190 -512924
832782076165380864 14488 -22578 -5225 -512958
832782076183593984 14654 -22333 -5190 -512902
832782076201807104 14720 -22278 -5167 -512923
832782076220020224 14763 -22229 -5222 -512919
832782076238233344 14757 -22253 -5215 -512971
832782076256446592 14817 -22181 -5278 -512931
832782076274659712 14936 -22048 -5264 -512949
832782076292872832 15075 -21838 -5228 -512888
832782076311085952 15316 -21626 -5185 -512893
832782076329299072 15656 -21339 -5170 -512885
832782076347512192 16006 -20998 -5187 -512880
832782076365725440 16302 -20689 -5197 -512899
832782076383938560 16369 -20628 -5244 -512953
832782076402151680 16431 -20590 -5170 -512877
832782076420364800 16182 -20843 -5279 -512936
832782076438577920 15758 -21226 -5198 -512914
832782076456791168 15280 -21771 -5233 -512926
832782076475004288 14727 -22324 -5187 -512948
832782076493217408 14209 -22849 -5166 -512870
832782076511430528 13730 -23310 -5130 -512858
832782076529643648 13415 -23637 -5111 -512802
832782076547856768 13234 -23785 -5139 -512834
832782076566070016 13174 -23801 -5227 -512878
832782076584283136 13346 -23690 -5184 -512884
832782076602496256 13594 -23470 -5168 -512848
832782076620709376 13903 -23178 -5194 -512874
832782076638922496 14166 -22859 -5191 -512922
832782076657135616 14413 -22619 -5173 -512829
832782076675348864 14622 -22498 -5151 -512855
832782076693561984 14739 -22343 -5225 -512881
832782076711775104 14753 -22247 -5141 -512869
832782076729988224 14757 -22242 -5214 -512893
832782076748201420 14901 -22179 -5163 -512879
832782076766413952 14883 -22110 -5180 -512881
832782076784626432 15081 -22015 -5158 -512957
832782076802838912 15313 -21727 -5192 -512893
832782076821051392 15586 -21458 -5196 -512927
832782076839263744 15896 -21049 -5179 -512862
832782076857476224 16201 -20795 -5178 -512882
832782076875688704 16439 -20533 -5126 -512830
832782076893901184 16426 -20551 -5203 -512923
832782076912113664 16304 -20700 -5187 -512897
832782076930326144 16019 -20974 -5231 -512922
832782076948538624 15581 -21504 -5196 -512877
832782076966751104 15037 -22021 -5175 -512889
832782076984963584 14528 -22501 -5199 -512896
832782077003175936 13934 -23078 -5222 -512885
832782077021388416 13505 -23432 -5233 -512873
832782077039600896 13223 -23717 -5236 -512888
832782077057813376 13156 -23833 -5230 -512865
832782077076025856 13251 -23768 -5149 -512907
832782077094238336 13499 -23546 -5115 -512858
832782077112450816 13719 -23243 -5165 -512831
832782077130663168 14049 -23008 -5192 -512861
832782077148875648 14301 -22748 -5161 -512891
832782077167088128 14543 -22523 -5202 -512915
832782077185300608 14658 -22377 -5254 -512915
832782077203513088 14786 -22274 -5177 -512891
832782077221725568 14812 -22303 -5207 -512904
832782077239938048 14887 -22240 -5241 -512860
832782077258150528 14853 -22172 -5222 -512882
832782077276363008 14969 -22110 -5251 -512909
832782077294575360 15079 -21926 -5303 -512942
832782077312787840 15461 -21649 -5219 -512918
832782077331000320 15739 -21248 -5191 -512921
832782077349212800 16079 -20919 -5225 -512906
832782077367425280 16345 -20713 -5242 -512914
832782077385637760 16429 -20557 -5208 -512921
832782077403850124 16448 -20599 -5233 -512878
832782077422062208 16095 -20830 -5233 -512952
832782077440274304 15732 -21270 -5253 -512973
832782077458486400 15217 -21785 -5230 -512970
832782077476698496 14628 -22362 -5195 -512928
832782077494910592 14146 -22921 -5180 -512950
832782077513122688 13681 -23363 -5153 -512893
832782077531334784 13344 -23638 -5228 -512909
832782077549546880 13202 -23862 -5234 -512879
832782077567758976 13210 -23829 -5173 -512966
832782077585971072 13357 -23757 -5184 -512919
832782077604183168 13603 -23520 -5273 -512889
832782077622395264 13831 -23169 -5220 -512912
832782077640607360 14158 -22844 -5256 -512929
832782077658819456 14439 -22613 -5194 -512930
832782077677031552 14622 -22446 -5231 -512946
832782077695243648 14698 -22328 -5192 -512897
832782077713455744 14736 -22278 -5201 -512909
832782077731667840 14794 -22181 -5172 -512906
832782077749879936 14813 -22173 -5145 -512944
832782077768092032 14916 -22167 -5217 -512922
832782077786304128 15060 -21981 -5161 -512948
832782077804516224 15293 -21758 -5230 -512936
832782077822728320 15617 -21413 -5211 -512874
832782077840940416 15964 -21136 -5239 -512882
832782077859152512 16183 -20825 -5221 -512950
832782077877364608 16387 -20592 -5226 -512961
832782077895576704 16440 -20541 -5201 -512929
832782077913788800 16371 -20720 -5135 -512895
832782077932000896 15954 -21099 -5207 -512940
832782077950212992 15429 -21519 -5215 -512960
832782077968425088 14901 -22093 -5213 -512893
832782077986637184 14372 -22624 -5152 -512935
832782078004849280 13908 -23116 -5186 -512936
832782078023061376 13587 -23522 -5166 -512880
832782078041273490 13260 -23734 -5197 -512911
832782078059486976 13196 -23791 -5201 -512892
832782078077700480 13264 -23745 -5209 -512908
832782078095913984 13492 -23534 -5211 -512935
832782078114127616 13694 -23261 -5196 -512886
832782078132341120 14044 -23018 -5221 -512902
832782078150554624 14288 -22737 -5207 -512893
832782078168768128 14568 -22444 -5221 -512881
832782078186981760 14635 -22342 -5229 -512908
832782078205195264 14770 -22281 -5228 -512919
832782078223408768 14768 -22258 -5237 -512949
832782078241622272 14859 -22235 -5166 -512911
832782078259835904 14866 -22133 -5198 -512907
832782078278049408 14967 -22051 -5203 -512942
832782078296262912 15207 -21827 -5177 -512908
832782078314476416 15476 -21583 -5132 -512828
832782078332689920 15802 -21237 -5140 -512774
832782078350903552 16127 -20983 -5152 -512878
832782078369117056 16370 -20669 -5215 -512860
832782078387330560 16519 -20548 -5139 -512910
832782078405544064 16426 -20606 -5201 -512895
832782078423757696 16152 -20809 -5178 -512874
832782078441971200 15665 -21336 -5221 -512923
832782078460184704 15162 -21891 -5183 -512893
832782078478398208 14584 -22407 -5191 -512933
832782078496611840 14056 -22876 -5134 -512881
832782078514825344 13653 -23390 -5133 -512880
832782078533038848 13450 -23638 -5180 -512904
832782078551252352 13223 -23846 -5236 -512902
832782078569465856 13281 -23808 -5199 -512904
832782078587679488 13349 -23672 -5151 -512904
832782078605892992 13593 -23483 -5166 -512945
832782078624106496 13839 -23130 -5198 -512962
832782078642320000 14157 -22787 -5198 -512856
832782078660533632 14361 -22613 -5197 -512892
832782078678747136 14589 -22434 -5163 -512887
832782078696960640 14739 -22242 -5113 -512871
832782078715174144 14788 -22194 -5159 -512847
832782078733387776 14841 -22221 -5092 -512829
832782078751601304 14856 -22207 -5185 -512869
832782078769814784 14907 -22084 -5212 -512891
832782078788028288 15067 -21937 -5172 -512897
832782078806241920 15348 -21685 -5153 -512864
832782078824455424 15610 -21349 -5182 -512897
832782078842669056 15934 -21103 -5169 -512890
832782078860882560 16233 -20762 -5134 -512872
832782078879096192 16456 -20541 -5165 -512945
832782078897309696 16452 -20595 -5242 -512889
832782078915523328 16291 -20755 -5213 -512864
832782078933736832 15897 -21178 -5205 -512902
832782078951950464 15434 -21607 -5184 -512895
832782078970163968 14844 -22165 -5214 -512904
832782078988377600 14296 -22754 -5228 -512867
832782079006591104 13842 -23177 -5204 -512901
832782079024804736 13483 -23574 -5166 -512929
832782079043018240 13221 -23802 -5239 -512948
832782079061231872 13195 -23877 -5219 -512948
832782079079445376 13225 -23801 -5235 -512991
832782079097659008 13459 -23575 -5213 -512925
832782079115872512 13693 -23347 -5271 -512918
832782079134086144 14033 -23007 -5229 -512922
832782079152299648 14318 -22701 -5216 -512899
832782079170513280 14551 -22500 -5198 -512895
832782079188726784 14687 -22316 -5101 -512880
832782079206940416 14745 -22246 -5190 -512940
832782079225153920 14717 -22281 -5201 -512973
832782079243367552 14822 -22228 -5128 -512944
832782079261581056 14832 -22168 -5168 -512966
832782079279794688 14975 -22024 -5169 -512938
832782079298008192 15072 -21864 -5242 -512954
832782079316221824 15435 -21572 -5218 -512904
832782079334435328 15719 -21249 -5183 -512932
832782079352648960 16045 -20931 -5243 -512894
832782079370862464 16358 -20640 -5208 -512943
832782079389076096 16456 -20558 -5198 -512910
832782079407289690 16367 -20644 -5227 -512927
832782079425502848 16096 -20939 -5220 -512911
832782079443715968 15663 -21400 -5237 -512944
832782079461929088 15159 -21855 -5234 -512901
832782079480142336 14563 -22413 -5236 -512921
832782079498355456 14061 -22977 -5207 -512935
832782079516568576 13652 -23453 -5213 -512906
832782079534781696 13310 -23681 -5183 -512935
832782079552994816 13143 -23863 -5235 -512906
832782079571207936 13213 -23809 -5163 -512878
832782079589421184 13321 -23648 -5175 -512901
832782079607634304 13610 -23438 -5215 -512939
832782079625847424 13946 -23128 -5166 -512871
832782079644060544 14247 -22781 -5205 -512907
832782079662273664 14438 -22628 -5178 -512913
832782079680486784 14597 -22427 -5209 -512924
832782079698700032 14696 -22308 -5229 -512868
832782079716913152 14659 -22252 -5216 -512931
832782079735126272 14733 -22209 -5164 -512959
832782079753339392 14781 -22226 -5170 -512914
832782079771552512 14871 -22124 -5208 -512906
832782079789765760 15070 -21951 -5230 -512909
832782079807978880 15344 -21715 -5203 -512899
832782079826192000 15630 -21385 -5199 -512901
832782079844405120 15955 -21051 -5203 -512879
832782079862618240 16272 -20796 -5201 -512964
832782079880831360 16466 -20554 -5175 -512885
832782079899044608 16454 -20597 -5241 -512923
832782079917257728 16260 -20796 -5209 -512933
832782079935470848 15793 -21200 -5263 -512965
832782079953683968 15274 -21717 -5239 -512966
832782079971897088 14784 -22235 -5229 -512908
832782079990110208 14409 -22630 -5162 -512867
832782080008323456 13872 -23152 -5201 -512865
832782080026536534 13445 -23542 -5166 -512876
832782080044749056 13193 -23771 -5205 -512903
832782080062961536 13162 -23828 -5184 -512920
832782080081173888 13264 -23775 -5151 -512878
832782080099386368 13483 -23508 -5149 -512897
832782080117598720 13757 -23261 -5201 -512944
832782080135811200 14133 -22913 -5185 -512946
832782080154023552 14445 -22663 -5149 -512821
832782080172236032 14541 -22531 -5214 -512911
832782080190448384 14717 -22342 -5163 -512855
832782080208660864 14731 -22246 -5148 -512871
832782080226873216 14739 -22260 -5164 -512896
832782080245085696 14725 -22206 -5197 -512899
832782080263298048 14871 -22175 -5153 -512861
832782080281510528 14995 -21982 -5205 -512865
832782080299722880 15229 -21757 -5227 -512879
832782080317935360 15497 -21548 -5187 -512911
832782080336147712 15802 -21238 -5200 -512925
832782080354360192 16128 -20904 -5204 -512964
832782080372572544 16367 -20693 -5167 -512889
832782080390785024 16479 -20583 -5190 -512942
832782080408997504 16322 -20624 -5186 -512895
832782080427209856 16045 -20973 -5140 -512912
832782080445422336 15539 -21479 -5200 -512944
832782080463634688 15051 -21988 -5211 -512926
832782080481847168 14509 -22519 -5166 -512887
832782080500059520 14021 -23026 -5136 -512901
832782080518272000 13560 -23437 -5193 -512920
832782080536484352 13292 -23732 -5231 -512865
832782080554696832 13122 -23883 -5246 -512999
832782080572909184 13158 -23806 -5314 -512927
832782080591121664 13382 -23675 -5182 -512916
832782080609334016 13665 -23375 -5210 -512928
832782080627546496 13912 -23030 -5236 -512884
832782080645758848 14222 -22745 -5144 -512879
832782080663971328 14414 -22578 -5215 -512963
832782080682183680 14658 -22383 -5190 -512928
832782080700396160 14698 -22308 -5181 -512928
832782080718608470 14788 -22260 -5187 -512910
832782080736820736 14782 -22283 -5256 -512885
832782080755032960 14789 -22174 -5238 -512912
832782080773245184 14968 -21987 -5166 -512903
832782080791457408 15148 -21855 -5198 -512891
832782080809669632 15351 -21694 -5180 -512936
832782080827881856 15632 -21335 -5225 -512902
832782080846094208 15982 -21015 -5224 -512888
832782080864306432 16243 -20769 -5247 -512906
832782080882518656 16502 -20503 -5196 -512914
832782080900730880 16441 -20558 -5182 -512932
832782080918943104 16152 -20788 -5237 -512932
832782080937155328 15845 -21211 -5218 -512923
832782080955367552 15290 -21701 -5224 -512921
832782080973579776 14768 -22303 -5166 -512899
832782080991792000 14204 -22828 -5166 -512885
832782081010004224 13704 -23331 -5213 -512979
832782081028216448 13558 -23564 -5178 -512925
832782081046428672 13276 -23748 -5164 -512857
832782081064641024 13172 -23852 -5164 -512912
832782081082853248 13329 -23683 -5183 -512926
832782081101065472 13510 -23552 -5213 -512946
832782081119277696 13839 -23278 -5197 -512933
832782081137489920 14136 -22971 -5190 -512854
832782081155702144 14427 -22598 -5148 -512850
832782081173914368 14634 -22432 -5191 -512830
832782081192126592 14697 -22284 -5243 -512893
832782081210338816 14693 -22281 -5197 -512887
832782081228551040 14793 -22278 -5248 -512921
832782081246763264 14767 -22184 -5252 -512989
832782081264975616 14830 -22156 -5214 -512945
832782081283187840 14981 -22003 -5215 -512971
832782081301400064 15220 -21796 -5163 -512936
832782081319612288 15519 -21481 -5232 -512946
832782081337824512 15773 -21180 -5230 -512930
832782081356036736 16127 -20910 -5263 -512930
832782081374248960 16339 -20627 -5217 -512924
832782081392461172 16479 -20574 -5237 -512914
832782081410673024 16335 -20670 -5180 -512912
832782081428884864 16018 -21031 -5219 -512928
832782081447096704 15551 -21513 -5197 -512944
832782081465308544 15027 -21984 -5173 -512935
832782081483520384 14488 -22551 -5136 -512923
832782081501732224 13982 -23077 -5238 -512887
832782081519944064 13574 -23432 -5183 -512896
832782081538155904 13424 -23634 -5151 -512880
832782081556367744 13274 -23726 -5146 -512954
832782081574579584 13268 -23729 -5159 -512871
832782081592791424 13449 -23575 -5224 -512894
832782081611003264 13625 -23322 -5228 -512902
832782081629214976 13908 -23072 -5205 -512862
832782081647426816 14238 -22765 -5200 -512898
832782081665638656 14494 -22497 -5145 -512864
832782081683850496 14615 -22427 -5208 -512948
832782081702062336 14734 -22297 -5214 -512930
832782081720274176 14805 -22252 -5197 -512909
832782081738486016 14771 -22215 -5175 -512898
832782081756697856 14867 -22131 -5179 -512847
832782081774909696 14938 -22059 -5147 -512911
832782081793121536 15113 -21897 -5177 -512874
832782081811333376 15377 -21625 -5199 -512894
832782081829545216 15674 -21340 -5261 -512942
832782081847757056 15999 -20974 -5212 -512949
832782081865968896 16311 -20741 -5178 -512869
832782081884180736 16458 -20549 -5232 -512882
832782081902392576 16411 -20600 -5204 -512919
832782081920604416 16210 -20793 -5165 -512889
832782081938816256 15752 -21237 -5205 -512878
832782081957028096 15273 -21779 -5175 -512905
832782081975239936 14703 -22270 -5221 -512916
832782081993451776 14132 -22818 -5211 -512976
832782082011663616 13677 -23304 -5211 -512955
832782082029875380 13386 -23583 -5158 -512933
832782082048087296 13185 -23813 -5157 -512870
832782082066299264 13129 -23876 -5190 -512957
832782082084511232 13269 -23692 -5203 -512911
832782082102723200 13545 -23541 -5233 -512914
832782082120935168 13818 -23256 -5279 -512929
832782082139147136 14123 -22906 -5191 -512907
832782082157359104 14349 -22671 -5148 -512940
832782082175571072 14554 -22430 -5165 -512895
832782082193783040 14667 -22320 -5195 -512927
832782082211995008 14755 -22235 -5166 -512886
832782082230206976 14725 -22293 -5249 -512983
832782082248418944 14765 -22260 -5211 -512966
832782082266630912 14887 -22178 -5209 -512927
832782082284842880 15033 -22005 -5237 -512920
832782082303054848 15240 -21801 -5242 -512911
832782082321266816 15563 -21484 -5201 -512908
832782082339478784 15925 -21170 -5182 -512941
832782082357690752 16197 -20843 -5222 -512899
832782082375902720 16433 -20626 -5211 -512933
832782082394114688 16453 -20576 -5187 -512926
832782082412326656 16278 -20668 -5197 -512908
832782082430538624 15984 -21044 -5185 -512895
832782082448750592 15487 -21519 -5216 -512910
832782082466962560 14967 -22094 -5186 -512916
832782082485174528 14352 -22618 -5212 -512942
832782082503386496 13861 -23125 -5201 -512957
832782082521598464 13561 -23542 -5208 -512933
832782082539810432 13204 -23833 -5231 -512952
832782082558022400 13163 -23896 -5204 -512926
832782082576234368 13242 -23871 -5151 -512898
832782082594446336 13414 -23587 -5187 -512926
832782082612658304 13691 -23308 -5211 -512918
832782082630870272 13966 -23016 -5210 -512884
832782082649082240 14301 -22776 -5183 -512903
832782082667294208 14493 -22582 -5248 -512910
832782082685506176 14648 -22383 -5260 -512931
832782082703718144 14704 -22335 -5221 -512905
832782082721930112 14765 -22249 -5158 -512855
832782082740142158 14767 -22242 -5219 -512881
832782082758354560 14868 -22178 -5207 -512871
832782082776566912 15003 -21989 -5187 -512901
832782082794779136 15067 -21932 -5239 -513025
832782082812991488 15473 -21590 -5227 -512901
832782082831203712 15737 -21269 -5133 -512933
832782082849416064 16112 -20957 -5192 -512884
832782082867628288 16337 -20766 -5276 -512905
832782082885840640 16480 -20581 -5202 -512886
832782082904052864 16469 -20557 -5150 -512873
832782082922265216 16119 -20829 -5239 -512948
832782082940477568 15717 -21267 -5230 -512926
832782082958689792 15168 -21821 -5211 -512981
832782082976902144 14653 -22373 -5165 -512909
832782082995114368 14148 -22886 -5198 -512902
832782083013326720 13742 -23215 -5203 -512931
832782083031538944 13378 -23615 -5201 -512908
832782083049751296 13194 -23797 -5139 -512927
832782083067963520 13161 -23860 -5222 -512957
832782083086175872 13338 -23700 -5184 -512910
832782083104388096 13576 -23474 -5186 -512922
832782083122600448 13848 -23187 -5220 -512918
832782083140812800 14238 -22810 -5134 -512947
832782083159025024 14401 -22595 -5122 -512935
832782083177237376 14647 -22418 -5227 -512850
832782083195449600 14726 -22311 -5209 -512892
832782083213661952 14814 -22272 -5213 -512909
832782083231874176 14819 -22207 -5168 -512918
832782083250086528 14824 -22165 -5231 -512937
832782083268298752 14936 -22085 -5245 -512907
832782083286511104 15124 -21878 -5229 -512886
832782083304723456 15298 -21738 -5185 -512928
832782083322935680 15569 -21413 -5197 -512873
832782083341148032 15845 -21112 -5170 -512926
832782083359360256 16223 -20804 -5196 -512890
832782083377572608 16410 -20601 -5204 -512894
832782083395784768 16431 -20569 -5269 -512957
832782083413996928 16329 -20754 -5209 -512958
832782083432209152 15958 -21069 -5203 -512956
832782083450421504 15411 -21560 -5236 -512942
832782083468633728 14917 -22083 -5174 -512903
832782083486845952 14315 -22676 -5228 -512925
832782083505058304 13865 -23136 -5173 -512877
832782083523270528 13516 -23507 -5174 -512944
832782083541482880 13284 -23782 -5219 -512903
832782083559695104 13192 -23861 -5244 -512908
832782083577907328 13274 -23717 -5161 -512910
832782083596119680 13451 -23534 -5181 -512931
832782083614331904 13747 -23255 -5180 -512899
832782083632544128 14043 -22986 -5187 -512857
832782083650756480 14336 -22715 -5118 -512855
832782083668968704 14549 -22492 -5227 -512903
832782083687180928 14690 -22321 -5132 -512884
832782083705393280 14770 -22225 -5124 -512921
832782083723605504 14772 -22228 -5147 -512947
832782083741817856 14797 -22196 -5170 -512936
832782083760030080 14866 -22179 -5208 -512905
832782083778242304 14968 -22015 -5226 -512894
832782083796454656 15159 -21812 -5280 -512933
832782083814666880 15417 -21553 -5224 -512911
832782083832879104 15743 -21203 -5182 -512876
832782083851091456 16094 -20885 -5214 -512857
832782083869303680 16329 -20697 -5198 -512923
832782083887515904 16458 -20531 -5157 -512943
832782083905728256 16419 -20608 -5124 -512904
832782083923940480 16104 -20890 -5161 -512850
832782083942152832 15671 -21290 -5105 -512873
832782083960365056 15138 -21848 -5152 -512891
832782083978577280 14658 -22362 -5179 -512893
832782083996789632 14036 -22994 -5214 -512913
832782084015001856 13669 -23379 -5209 -512869
832782084033214236 13354 -23682 -5208 -512919
832782084051427328 13211 -23806 -5199 -512940
832782084069640448 13220 -23777 -5253 -512903
832782084087853568 13372 -23645 -5252 -512912
832782084106066816 13685 -23378 -5201 -512902
832782084124279936 13945 -23101 -5182 -512892
832782084142493056 14245 -22787 -5157 -512869
832782084160706176 14443 -22559 -5209 -512912
832782084178919296 14642 -22381 -5197 -512914
832782084197132416 14722 -22299 -5200 -512886
832782084215345664 14760 -22289 -5201 -512877
832782084233558784 14774 -22209 -5224 -512882
832782084251771904 14839 -22211 -5193 -512889
832782084269985024 14952 -22074 -5116 -512853
832782084288198144 15093 -21924 -5122 -512843
832782084306411264 15373 -21710 -5183 -512914
832782084324624512 15688 -21421 -5191 -512893
832782084342837632 15991 -21066 -5209 -512882
832782084361050752 16256 -20739 -5216 -512868
832782084379263872 16544 -20554 -5151 -512889
832782084397476992 16544 -20481 -5117 -512885
832782084415690112 16295 -20674 -5159 -512859
832782084433903360 15887 -21035 -5173 -512873
832782084452116480 15398 -21562 -5132 -512853
832782084470329600 14882 -22128 -5151 -512878
832782084488542720 14347 -22723 -5204 -512884
832782084506755840 13833 -23221 -5234 -512890
832782084524969088 13530 -23556 -5173 -512903
832782084543182208 13338 -23769 -5198 -512928
832782084561395328 13255 -23841 -5177 -512936
832782084579608448 13313 -23763 -5211 -512896
832782084597821568 13438 -23561 -5220 -512886
832782084616034688 13781 -23266 -5164 -512867
832782084634247936 14113 -23013 -5222 -512899
832782084652461056 14344 -22679 -5227 -512939
832782084670674176 14543 -22495 -5190 -512972
832782084688887296 14703 -22303 -5148 -512884
832782084707100416 14817 -22260 -5216 -512948
832782084725313640 14777 -22238 -5211 -512933
832782084743526784 14795 -22232 -5227 -512894
832782084761739904 14791 -22190 -5197 -512861
832782084779953024 15008 -21999 -5153 -512821
832782084798166272 15208 -21806 -5147 -512829
832782084816379392 15496 -21501 -5178 -512851
832782084834592512 15847 -21183 -5143 -512873
832782084852805632 16067 -20909 -5221 -512924
832782084871018752 16376 -20584 -5162 -512860
832782084889231872 16486 -20530 -5166 -512910
832782084907445120 16359 -20631 -5183 -512864
832782084925658240 16118 -20887 -5180 -512895
832782084943871360 15631 -21335 -5204 -512944
832782084962084480 15128 -21882 -5211 -512896
832782084980297600 14737 -22342 -5169 -512858
832782084998510720 14104 -22961 -5177 -512862
832782085016723968 13571 -23395 -5208 -512918
832782085034937088 13313 -23688 -5242 -512877
832782085053150208 13234 -23886 -5192 -512914
832782085071363328 13215 -23870 -5157 -512956
832782085089576448 13386 -23666 -5146 -512897
832782085107789696 13676 -23414 -5139 -512860
832782085126002816 14009 -23098 -5174 -512911
832782085144215936 14258 -22772 -5153 -512943
832782085162429056 14417 -22632 -5247 -512885
832782085180642176 14675 -22406 -5186 -512896
832782085198855296 14731 -22298 -5156 -512879
832782085217068544 14782 -22247 -5151 -512920
832782085235281664 14796 -22225 -5239 -512926
832782085253494784 14904 -22216 -5193 -512942
832782085271707904 14980 -22176 -5201 -512945
832782085289921024 15104 -21933 -5196 -512884
832782085308134144 15357 -21611 -5159 -512891
832782085326347392 15654 -21404 -5194 -512894
832782085344560512 16001 -21014 -5131 -512882
832782085362773632 16227 -20758 -5149 -512896
832782085380986752 16476 -20544 -5176 -512863
832782085399199910 16423 -20622 -5219 -512897
832782085417412992 16241 -20733 -5148 -512882
832782085435626112 15851 -21199 -5141 -512920
832782085453839232 15422 -21660 -5096 -512897
832782085472052480 14817 -22277 -5191 -512964
832782085490265600 14384 -22684 -5181 -512916
832782085508478720 13809 -23146 -5102 -512906
832782085526691840 13477 -23544 -5167 -512893
832782085544904960 13257 -23754 -5128 -512884
832782085563118080 13219 -23814 -5129 -512889
832782085581331328 13333 -23731 -5144 -512898
832782085599544448 13503 -23553 -5208 -512895
832782085617757568 13777 -23243 -5169 -512906
832782085635970688 14074 -22903 -5187 -512878
832782085654183808 14381 -22597 -5135 -512855
832782085672396928 14551 -22445 -5165 -512876
832782085690610176 14693 -22332 -5203 -512874
832782085708823296 14773 -22220 -5213 -512893
832782085727036416 14811 -22228 -5174 -512936
832782085745249536 14811 -22174 -5205 -512890
832782085763462656 14867 -22172 -5209 -512903
832782085781675904 15005 -21980 -5194 -512929
832782085799889024 15245 -21783 -5179 -512886
832782085818102144 15531 -21487 -5130 -512889
832782085836315264 15848 -21199 -5197 -512882
832782085854528384 16161 -20878 -5197 -512865
832782085872741504 16408 -20606 -5209 -512873
832782085890954752 16507 -20437 -5215 -512871
832782085909167872 16406 -20592 -5160 -512876
832782085927380992 16075 -20868 -5185 -512882
832782085945594112 15619 -21416 -5178 -512896
832782085963807232 15086 -21939 -5179 -512907
832782085982020352 14496 -22464 -5181 -512888
832782086000233600 14135 -22871 -5214 -512855
832782086018446720 13676 -23291 -5148 -512829
832782086036659896 13387 -23713 -5193 -512851
832782086054872960 13197 -23865 -5179 -512916
832782086073086080 13219 -23831 -5201 -512888
832782086091299200 13365 -23661 -5219 -512962
832782086109512448 13626 -23393 -5237 -512982
832782086127725568 13942 -23092 -5178 -512982
832782086145938688 14240 -22776 -5202 -512893
832782086164151808 14488 -22597 -5174 -512909
832782086182364928 14717 -22364 -5117 -512863
832782086200578048 14751 -22282 -5184 -512908
832782086218791296 14797 -22229 -5210 -512889
832782086237004416 14835 -22160 -5140 -512857
832782086255217536 14819 -22147 -5164 -512904
832782086273430656 14958 -22055 -5163 -512858
832782086291643776 15140 -21871 -5179 -512899
832782086309856896 15392 -21639 -5210 -512922
832782086328070144 15681 -21336 -5187 -512871
832782086346283264 16056 -20991 -5147 -512855
832782086364496384 16317 -20728 -5200 -512948
832782086382709504 16460 -20561 -5167 -512925
832782086400922624 16510 -20593 -5187 -512871
832782086419135872 16248 -20809 -5212 -512916
832782086437348992 15858 -21161 -5170 -512932
832782086455562112 15345 -21714 -5185 -512893
832782086473775232 14771 -22278 -5165 -512909
832782086491988352 14251 -22817 -5147 -512918
832782086510201472 13797 -23323 -5130 -512871
832782086528414720 13411 -23611 -5238 -512896
832782086546627840 13257 -23771 -5208 -512867
832782086564840960 13220 -23864 -5224 -512893
832782086583054080 13369 -23687 -5138 -512840
832782086601267200 13549 -23500 -5192 -512859
832782086619480320 13763 -23182 -5228 -512887
832782086637693568 14087 -22950 -5251 -512906
832782086655906688 14438 -22638 -5175 -512839
832782086674119808 14675 -22465 -5163 -512863
832782086692332928 14678 -22283 -5153 -512876
832782086710546048 14737 -22238 -5203 -512953
832782086728759168 14806 -22193 -5147 -512927
832782086746972450 14780 -22197 -5168 -512928
832782086765184768 14881 -22104 -5194 -512938
832782086783397120 15008 -21997 -5142 -512835
832782086801609344 15249 -21724 -5163 -512918
832782086819821696 15555 -21427 -5153 -512868
832782086838033920 15859 -21154 -5153 -512898
832782086856246272 16156 -20764 -5124 -512906
832782086874458496 16381 -20558 -5151 -512913
832782086892670848 16461 -20527 -5131 -512848
832782086910883072 16288 -20658 -5169 -512885
832782086929095424 16012 -20979 -5190 -512857
832782086947307776 15568 -21472 -5203 -512880
832782086965520000 15037 -22022 -5263 -512859
832782086983732352 14514 -22548 -5199 -512890
832782087001944576 14010 -23020 -5160 -512871
832782087020156928 13598 -23393 -5155 -512810
832782087038369152 13409 -23645 -5140 -512899
832782087056581504 13221 -23819 -5193 -512889
832782087074793728 13262 -23754 -5185 -512893
832782087093006080 13443 -23574 -5170 -512889
832782087111218304 13663 -23314 -5125 -512930
832782087129430656 14005 -23012 -5184 -512854
832782087147643008 14278 -22744 -5191 -512913
832782087165855232 14484 -22577 -5198 -512943
832782087184067584 14652 -22376 -5190 -512927
832782087202279808 14746 -22222 -5166 -512956
832782087220492160 14768 -22198 -5170 -512926
832782087238704384 14783 -22145 -5182 -512944
832782087256916736 14881 -22134 -5161 -512943
832782087275128960 15000 -22077 -5145 -512904
832782087293341312 15165 -21854 -5187 -512915
832782087311553664 15425 -21600 -5184 -512848
832782087329765888 15708 -21314 -5239 -512938
832782087347978240 16014 -20996 -5219 -512949
832782087366190464 16324 -20718 -5199 -512928
832782087384402816 16559 -20514 -5166 -512890
832782087402615060 16436 -20595 -5159 -512859
832782087420827264 16183 -20833 -5174 -512854
832782087439039488 15818 -21255 -5194 -512844
832782087457251840 15308 -21752 -5200 -512838
832782087475464064 14850 -22203 -5202 -512858
832782087493676288 14219 -22806 -5127 -512886
832782087511888640 13715 -23324 -5157 -512927
832782087530100864 13401 -23628 -5193 -512891
832782087548313216 13165 -23827 -5178 -512902
832782087566525440 13223 -23786 -5155 -512880
832782087584737664 13296 -23726 -5193 -512929
832782087602950016 13543 -23508 -5170 -512947
832782087621162240 13849 -23174 -5174 -512888
832782087639374464 14179 -22928 -5195 -512937
832782087657586816 14445 -22618 -5140 -512888
832782087675799040 14560 -22459 -5173 -512913
832782087694011264 14733 -22327 -5180 -512884
832782087712223616 14756 -22247 -5178 -512863
832782087730435840 14784 -22203 -5196 -512869
832782087748648192 14868 -22210 -5215 -512858
832782087766860416 14923 -22057 -5159 -512839
832782087785072640 15040 -21948 -5184 -512897
832782087803284992 15292 -21775 -5193 -512947
832782087821497216 15570 -21471 -5174 -512974
832782087839709440 15917 -21123 -5205 -512880
832782087857921792 16239 -20836 -5217 -512913
832782087876134016 16472 -20618 -5168 -512944
832782087894346240 16493 -20535 -5167 -512911
832782087912558592 16348 -20702 -5293 -512882
832782087930770816 15980 -21052 -5234 -512928
832782087948983168 15522 -21506 -5214 -512906
832782087967195392 15007 -22088 -5179 -512887
832782087985407616 14472 -22517 -5200 -512904
832782088003619968 13903 -23103 -5164 -512888
832782088021832192 13608 -23491 -5195 -512956
832782088040044528 13246 -23764 -5254 -512955
832782088058257664 13141 -23867 -5243 -512888
832782088076470784 13243 -23797 -5302 -512902
832782088094683904 13473 -23583 -5283 -512888
832782088112897152 13661 -23317 -5264 -512894
832782088131110272 14053 -22984 -5201 -512890
832782088149323392 14252 -22770 -5263 -512906
832782088167536512 14506 -22547 -5230 -512988
832782088185749632 14660 -22413 -5238 -512895
832782088203962752 14714 -22283 -5197 -512872
832782088222176000 14768 -22214 -5148 -512896
832782088240389120 14767 -22192 -5183 -512921
832782088258602240 14858 -22088 -5202 -512877
832782088276815360 14991 -22031 -5179 -512871
832782088295028480 15229 -21835 -5211 -512896
832782088313241600 15417 -21595 -5243 -512955
832782088331454848 15801 -21259 -5168 -512892
832782088349667968 16055 -20964 -5182 -512926
832782088367881088 16294 -20690 -5215 -512885
832782088386094208 16501 -20540 -5176 -512847
832782088404307328 16404 -20580 -5186 -512882
832782088422520448 16130 -20875 -5184 -512851
832782088440733696 15780 -21242 -5147 -512842
832782088458946816 15238 -21767 -5151 -512892
832782088477159936 14634 -22320 -5199 -512876
832782088495373056 14082 -22945 -5230 -512906
832782088513586176 13798 -23262 -5217 -512906
832782088531799424 13420 -23648 -5204 -512962
832782088550012544 13248 -23777 -5234 -512919
832782088568225664 13206 -23799 -5174 -512889
832782088586438784 13315 -23734 -5145 -512911
832782088604651904 13541 -23436 -5218 -512932
832782088622865024 13901 -23086 -5119 -512913
832782088641078272 14171 -22867 -5231 -512981
832782088659291392 14414 -22617 -5179 -512895
832782088677504512 14611 -22432 -5218 -512886
832782088695717632 14783 -22310 -5185 -512912
832782088713930752 14817 -22220 -5133 -512889
832782088732143932 14819 -22269 -5201 -512894
832782088750356480 14842 -22195 -5149 -512914
832782088768569088 14904 -22095 -5139 -512909
832782088786781568 15119 -21934 -5178 -512880
832782088804994176 15271 -21699 -5167 -512923
832782088823206656 15584 -21407 -5157 -512895
832782088841419264 15945 -21082 -5116 -512898
832782088859631744 16214 -20802 -5170 -512885
832782088877844352 16473 -20559 -5193 -512869
832782088896056832 16412 -20522 -5170 -512903
832782088914269440 16323 -20687 -5152 -512877
832782088932481920 16012 -21079 -5164 -512853
832782088950694528 15477 -21497 -5176 -512835
832782088968907008 14971 -22075 -5183 -512831
832782088987119616 14393 -22693 -5177 -512855
832782089005332224 13788 -23156 -5176 -512922
832782089023544704 13621 -23402 -5160 -512886
832782089041757312 13281 -23722 -5186 -512896
832782089059969792 13202 -23803 -5199 -512920
832782089078182400 13292 -23722 -5218 -512915
832782089096394880 13516 -23535 -5160 -512881
832782089114607488 13725 -23340 -5216 -512887
832782089132819968 14033 -22964 -5241 -512903
832782089151032576 14312 -22700 -5162 -512893
832782089169245056 14517 -22495 -5180 -512904
832782089187457664 14694 -22317 -5175 -512903
832782089205670144 14812 -22191 -5102 -512840
832782089223882752 14796 -22193 -5151 -512932
832782089242095360 14875 -22201 -5150 -512874
832782089260307840 14922 -22186 -5170 -512897
832782089278520448 15034 -22053 -5220 -512884
832782089296732928 15227 -21854 -5242 -512891
832782089314945536 15460 -21508 -5224 -512875
832782089333158016 15801 -21257 -5201 -512923
832782089351370624 16126 -20896 -5190 -512872
832782089369583104 16359 -20670 -5170 -512903
832782089387795696 16455 -20546 -5139 -512884
832782089406007296 16382 -20638 -5159 -512884
832782089424218880 16116 -20893 -5131 -512890
832782089442430592 15718 -21308 -5146 -512902
832782089460642176 15215 -21821 -5153 -512874
832782089478853760 14630 -22418 -5186 -512952
832782089497065344 14120 -22955 -5182 -512852
832782089515277056 13641 -23404 -5201 -512896
832782089533488640 13405 -23604 -5166 -512909
832782089551700224 13251 -23794 -5170 -512943
832782089569911808 13236 -23780 -5182 -512881
832782089588123520 13347 -23636 -5183 -512892
832782089606335104 13604 -23384 -5211 -512912
832782089624546688 13947 -23064 -5212 -512895
832782089642758272 14221 -22845 -5197 -512879
832782089660969984 14476 -22619 -5234 -512927
832782089679181568 14662 -22368 -5181 -512854
832782089697393152 14797 -22270 -5167 -512830
832782089715604736 14890 -22192 -5095 -512880
832782089733816448 14858 -22178 -5114 -512948
832782089752028032 14889 -22107 -5155 -512958
832782089770239616 14896 -22092 -5213 -512962
832782089788451200 15063 -21975 -5266 -512929
832782089806662912 15351 -21735 -5264 -512941
832782089824874496 15671 -21425 -5203 -512880
832782089843086080 15924 -21019 -5260 -512887
832782089861297664 16264 -20752 -5185 -512886
832782089879509376 16478 -20502 -5167 -512880
832782089897720960 16475 -20591 -5200 -512921
832782089915932544 16277 -20748 -5187 -512946
832782089934144128 15934 -21085 -5175 -512914
832782089952355840 15360 -21598 -5200 -512922
832782089970567424 14993 -21987 -5144 -512895
832782089988779008 14302 -22684 -5164 -512885
832782090006990592 13860 -23191 -5190 -512889
832782090025202304 13445 -23595 -5129 -512897
832782090043413888 13210 -23817 -5212 -512982
832782090061625508 13160 -23826 -5192 -512972
832782090079837056 13257 -23696 -5162 -512956
832782090098048640 13492 -23513 -5145 -512902
832782090116260352 13753 -23263 -5178 -512944
832782090134471936 14039 -22969 -5199 -512921
832782090152683520 14350 -22631 -5179 -512897
832782090170895104 14498 -22466 -5183 -512886
832782090189106816 14687 -22310 -5180 -512891
832782090207318400 14732 -22250 -5192 -512882
832782090225529984 14800 -22195 -5116 -512890
832782090243741568 14861 -22189 -5174 -512862
832782090261953280 14872 -22157 -5207 -512947
832782090280164864 15009 -22010 -5208 -512877
832782090298376448 15230 -21775 -5144 -512864
832782090316588032 15480 -21531 -5149 -512938
832782090334799744 15738 -21239 -5190 -512869
832782090353011328 16036 -20906 -5221 -512893
832782090371222912 16358 -20621 -5172 -512892
832782090389434496 16554 -20487 -5119 -512876
832782090407646208 16409 -20667 -5174 -512891
832782090425857792 16097 -20930 -5173 -512913
832782090444069376 15664 -21374 -5144 -512939
832782090462280960 15105 -21872 -5152 -512930
832782090480492672 14556 -22475 -5159 -512875
832782090498704256 14032 -23004 -5169 -512899
832782090516915840 13645 -23334 -5122 -512862
832782090535127424 13419 -23696 -5153 -512847
832782090553339136 13224 -23829 -5164 -512890
832782090571550720 13242 -23808 -5109 -512851
832782090589762304 13354 -23661 -5194 -512905
832782090607973888 13602 -23398 -5204 -512916
832782090626185600 13872 -23086 -5211 -512958
832782090644397184 14248 -22785 -5187 -512914
832782090662608768 14496 -22535 -5177 -512956
832782090680820352 14664 -22399 -5145 -512868
832782090699032064 14749 -22333 -5209 -512906
832782090717243648 14797 -22212 -5175 -512916
832782090735455232 14893 -22168 -5164 -512915
832782090753666816 14934 -22119 -5165 -512854
832782090771878552 14963 -22055 -5179 -512916
832782090790090112 15163 -21894 -5196 -512897
