TIMESTAMP PPG0 PPG1 PPG2 AMBIENT
832782863202554368 348365 315114 338507 -173071
832782863220736128 348378 315096 338533 -173046
832782863238918016 348355 315093 338513 -173069
832782863257099776 348362 315122 338510 -173058
832782863275281664 348436 315128 338560 -173070
832782863293463424 348377 315068 338487 -173119
832782863311645312 348424 315108 338499 -173134
832782863329827072 348367 315087 338512 -173080
832782863348008960 348413 315119 338526 -173095
832782863366190720 348373 315118 338502 -173108
832782863384372608 348386 315128 338504 -173043
832782863402554368 348443 315158 338483 -173056
832782863420736128 348376 315112 338482 -173133
832782863438918016 348382 315173 338539 -173062
832782863457099776 348383 315142 338625 -173013
832782863475281664 348324 315119 338528 -173100
832782863493463424 348342 315069 338492 -173054
832782863511645312 348360 315113 338532 -173023
832782863529827072 348352 315110 338547 -173056
832782863548008960 348335 315136 338611 -173030
832782863566190720 348323 315180 338509 -173093
832782863584372608 348280 315107 338506 -173088
832782863602554368 348368 315121 338524 -173053
832782863620736128 348321 315043 338489 -173136
832782863638918016 348337 315174 338498 -173120
832782863657099776 348342 315083 338466 -173096
832782863675281664 348416 315121 338499 -173093
832782863693463424 348389 315103 338487 -173077
832782863711645312 348345 315130 338514 -173087
832782863729827072 348360 315180 338535 -173039
832782863748008960 348399 315169 338558 -173058
832782863766190720 348326 315197 338521 -173059
832782863784372608 348315 315116 338428 -173107
832782863802554368 348365 315163 338510 -173088
832782863820736128 348356 315164 338480 -173098
832782863838918016 348373 315166 338457 -173096
832782863857099776 348324 315096 338426 -173102
832782863875281664 348324 315144 338522 -173098
832782863893463424 348345 315139 338530 -173055
832782863911645312 348318 315136 338504 -173082
832782863929827072 348382 315189 338589 -173070
832782863948008960 348336 315181 338555 -173060
832782863966190720 348336 315091 338538 -173109
832782863984372608 348358 315133 338539 -173136
832782864002554368 348358 315119 338565 -173112
832782864020736134 348334 315087 338509 -173106
832782864038948736 348355 315161 338526 -173044
832782864057161344 348406 315130 338578 -173104
832782864075373952 348401 315191 338512 -173042
832782864093586560 348360 315116 338472 -173071
832782864111799168 348316 315138 338472 -173163
832782864130011776 348353 315145 338465 -173098
832782864148224384 348433 315132 338496 -173087
832782864166436992 348402 315154 338526 -173085
832782864184649600 348316 315128 338482 -173089
832782864202862208 348359 315156 338486 -173079
832782864221074816 348356 315144 338447 -173113
832782864239287552 348358 315179 338468 -173047
832782864257500160 348384 315127 338469 -173026
832782864275712768 348335 315117 338477 -173069
832782864293925376 348335 315135 338468 -173069
832782864312137984 348392 315161 338474 -173026
832782864330350592 348407 315183 338512 -173053
832782864348563200 348376 315170 338496 -173078
832782864366775808 348356 315091 338442 -173127
832782864384988416 348319 315110 338481 -173110
832782864403201024 348332 315189 338509 -173059
832782864421413632 348343 315152 338504 -173073
832782864439626240 348373 315115 338494 -173044
832782864457838848 348350 315080 338454 -173141
832782864476051456 348370 315123 338474 -173114
832782864494264064 348383 315181 338542 -173047
832782864512476672 348355 315175 338515 -173120
832782864530689280 348396 315121 338512 -173097
832782864548901888 348423 315179 338559 -173058
832782864567114496 348413 315162 338565 -173082
832782864585327104 348353 315139 338493 -173050
832782864603539712 348345 315153 338534 -173086
832782864621752448 348374 315147 338504 -173042
832782864639965056 348418 315130 338521 -173108
832782864658177664 348395 315168 338551 -173043
832782864676390272 348344 315129 338529 -173076
832782864694602880 348400 315116 338531 -173052
832782864712815488 348388 315113 338525 -173017
832782864731028096 348384 315162 338577 -173117
832782864749240704 348395 315073 338496 -173103
832782864767453312 348412 315119 338522 -173039
832782864785665920 348399 315117 338568 -173058
832782864803878528 348404 315154 338521 -173035
832782864822091136 348341 315084 338478 -173088
832782864840303744 348385 315129 338521 -173073
832782864858516352 348325 315175 338529 -173070
832782864876728960 348368 315165 338492 -173090
832782864894941568 348321 315162 338473 -173095
832782864913154176 348368 315198 338493 -173051
832782864931366784 348399 315230 338534 -173047
832782864949579392 348434 315186 338557 -173064
832782864967792066 348442 315189 338568 -173053
832782864986005248 348365 315159 338503 -173068
832782865004218368 348395 315104 338537 -173068
832782865022431360 348337 315106 338503 -173099
832782865040644480 348354 315111 338511 -173130
832782865058857472 348358 315180 338505 -173085
832782865077070592 348383 315138 338471 -173106
832782865095283712 348380 315164 338513 -173074
832782865113496704 348390 315155 338509 -173110
832782865131709824 348313 315086 338508 -173116
832782865149922816 348352 315110 338488 -173188
832782865168135936 348307 315112 338479 -173105
832782865186349056 348399 315186 338532 -173050
832782865204562048 348445 315138 338535 -173062
832782865222775168 348418 315118 338531 -173062
832782865240988160 349779 316513 338493 -173071
832782865259201280 350256 317033 338490 -173063
832782865277414400 350404 317229 338485 -173065
832782865295627392 350613 317374 338564 -173073
832782865313840512 350748 317609 338493 -173093
832782865332053504 350959 317799 338483 -173110
832782865350266624 351032 317929 338522 -173126
832782865368479616 351140 317984 338529 -173074
832782865386692736 351248 318080 338545 -173090
832782865404905856 351385 318137 338551 -173051
832782865423118848 351509 318268 338563 -173074
832782865441331968 351615 318465 338520 -173119
832782865459544960 351802 318614 338522 -173113
832782865477758080 351933 318733 338589 -173024
832782865495971200 351727 318477 338565 -173031
832782865514184192 351421 318152 338517 -173074
832782865532397312 351104 317932 338602 -173069
832782865550610304 350937 317708 338541 -173063
832782865568823424 350759 317537 338546 -173117
832782865587036544 350826 317639 338592 -173055
832782865605249536 350997 317735 338514 -173018
832782865623462656 351146 317872 338500 -173091
832782865641675648 351227 317990 338498 -173078
832782865659888768 351292 318066 338510 -173070
832782865678101888 351368 318107 338569 -173057
832782865696314880 351399 318167 338514 -173058
832782865714527854 351545 318352 338490 -173100
832782865732739584 351741 318580 338544 -173098
832782865750951296 351929 318763 338578 -173074
832782865769163008 351850 318638 338559 -173033
832782865787374592 351647 318427 338529 -173071
832782865805586304 351320 318165 338535 -173092
832782865823798016 350986 317813 338543 -173092
832782865842009728 350767 317496 338556 -173063
832782865860221440 350743 317481 338524 -173054
832782865878433152 350871 317638 338513 -173064
832782865896644736 350981 317784 338541 -173095
832782865914856448 351140 317947 338522 -173077
832782865933068160 351261 318056 338514 -173044
832782865951279872 351322 318124 338529 -173067
832782865969491584 351358 318144 338440 -173047
832782865987703296 351499 318274 338500 -173007
832782866005914880 351632 318397 338547 -173109
832782866024126592 351836 318645 338552 -173057
832782866042338304 351905 318736 338561 -173067
832782866060550016 351824 318671 338550 -173075
832782866078761728 351602 318369 338554 -173056
832782866096973312 351261 318054 338523 -173035
832782866115185024 350879 317699 338470 -173089
832782866133396736 350702 317526 338445 -173110
832782866151608448 350747 317572 338511 -173059
832782866169820160 350877 317667 338507 -173115
832782866188031872 351066 317845 338502 -173081
832782866206243456 351176 318005 338544 -173087
832782866224455168 351266 318049 338505 -173074
832782866242666880 351324 318116 338493 -173056
832782866260878592 351381 318150 338527 -173060
832782866279090304 351572 318301 338552 -173092
832782866297302016 351758 318517 338505 -173062
832782866315513600 351943 318686 338541 -173078
832782866333725312 351917 318753 338558 -173110
832782866351937024 351783 318618 338574 -173098
832782866370148736 351501 318253 338585 -173061
832782866388360448 351141 317872 338554 -173103
832782866406572032 350854 317606 338505 -173100
832782866424783744 350757 317484 338490 -173127
832782866442995456 350808 317604 338493 -173081
832782866461207168 350977 317707 338500 -173074
832782866479418806 351151 317889 338494 -173063
832782866497631872 351415 318184 338549 -173057
832782866515844992 351407 318151 338506 -173038
832782866534058112 351409 318249 338567 -173022
832782866552271360 351464 318345 338590 -173029
832782866570484480 351595 318431 338578 -173027
832782866588697600 351858 318729 338614 -173010
832782866606910720 352030 318799 338584 -173025
832782866625123840 351962 318801 338618 -173051
832782866643336960 351720 318512 338595 -172996
832782866661550208 351390 318147 338549 -173023
832782866679763328 351018 317834 338568 -173053
832782866697976448 350832 317593 338491 -173036
832782866716189568 350790 317569 338517 -173060
832782866734402688 350883 317642 338537 -173103
832782866752615808 351065 317806 338506 -173012
832782866770829056 351186 318006 338527 -173068
832782866789042176 351345 318053 338531 -173035
832782866807255296 351323 318090 338557 -173030
832782866825468416 351380 318192 338497 -173057
832782866843681536 351512 318312 338547 -173051
832782866861894656 351659 318434 338551 -173077
832782866880107904 351832 318598 338551 -173109
832782866898321024 352004 318753 338565 -173070
832782866916534144 351488 318423 338582 -173038
832782866934747264 350888 317735 338577 -173076
832782866952960384 350300 317157 338573 -173019
832782866971173632 349667 316590 338606 -173027
832782866989386752 349019 315803 338599 -173019
832782867007599872 348728 315570 338524 -173036
832782867025812992 348565 315320 338530 -173029
832782867044026112 348489 315301 338555 -173035
832782867062239232 348479 315267 338475 -173104
832782867080452480 348532 315335 338601 -173075
832782867098665600 348461 315220 338540 -173054
832782867116878720 348392 315208 338543 -173030
832782867135091840 348445 315147 338594 -173047
832782867153305068 348389 315166 338533 -173092
832782867171517696 348338 315108 338548 -173078
832782867189730304 348405 315091 338517 -173060
832782867207942784 348369 315157 338540 -173061
832782867226155392 348411 315181 338522 -173133
832782867244367872 348391 315168 338580 -173086
832782867262580480 348378 315170 338559 -173115
832782867280793088 348340 315161 338510 -173078
832782867299005568 348316 315068 338530 -173091
832782867317218176 348375 315173 338512 -173069
832782867335430656 348311 315110 338494 -173107
832782867353643264 348326 315158 338498 -173131
832782867371855744 348386 315156 338502 -173038
832782867390068352 348448 315199 338534 -173058
832782867408280960 348363 315101 338539 -173117
832782867426493440 348407 315136 338593 -173063
832782867444706048 348392 315141 338529 -173074
832782867462918528 348407 315191 338550 -173024
832782867481131136 348390 315158 338507 -173020
832782867499343744 348367 315130 338488 -173078
832782867517556224 348292 315084 338558 -173112
832782867535768832 348392 315148 338524 -173046
832782867553981312 348369 315139 338526 -173105
832782867572193920 348389 315161 338557 -173069
832782867590406528 348388 315142 338527 -173052
832782867608619008 348365 315093 338523 -173050
832782867626831616 348343 315090 338515 -173120
832782867645044096 348402 315173 338561 -173054
832782867663256704 348374 315102 338552 -173102
832782867681469312 348419 315099 338499 -173076
832782867699681792 348377 315104 338517 -173033
832782867717894400 348350 315124 338537 -173092
832782867736106880 348428 315124 338500 -173082
832782867754319488 348327 315084 338520 -173141
832782867772531968 348388 315079 338539 -173053
832782867790744576 348402 315113 338556 -173058
832782867808957184 348370 315138 338564 -173059
832782867827169664 348361 315110 338529 -173094
832782867845382272 348392 315204 338533 -173044
832782867863594752 348411 315141 338531 -173008
832782867881807360 348366 315165 338601 -173022
832782867900019968 348404 315120 338560 -173058
832782867918232448 348356 315082 338534 -173055
832782867936445056 348399 315113 338529 -173014
832782867954657536 348392 315117 338530 -173020
832782867972870144 348340 315062 338533 -173071
832782867991082752 348328 315107 338505 -173087
832782868009295232 348324 315145 338531 -173054
832782868027507840 348323 315104 338486 -173096
832782868045720320 348367 315179 338559 -173073
832782868063932928 348404 315215 338583 -173077
832782868082145536 348392 315201 338593 -173085
832782868100357958 348383 315154 338512 -173026
832782868118570624 348401 315169 338511 -173053
832782868136783232 348390 315139 338460 -173038
832782868154995712 348412 315151 338521 -173107
832782868173208320 348377 315167 338537 -173091
832782868191420800 348358 315145 338531 -173111
832782868209633408 348383 315148 338510 -173097
832782868227846016 348337 315108 338510 -173034
832782868246058496 348360 315165 338551 -173085
832782868264271104 348396 315142 338580 -173051
832782868282483584 348407 315140 338503 -173100
832782868300696192 348319 315098 338466 -173072
832782868318908672 348355 315180 338513 -173056
832782868337121280 348325 315128 338533 -173064
832782868355333888 348343 315106 338498 -173043
832782868373546368 348384 315121 338530 -173069
832782868391758976 348353 315138 338509 -173097
832782868409971456 348389 315192 338527 -173079
832782868428184064 348438 315127 338561 -173038
832782868446396672 348408 315121 338516 -173095
832782868464609152 348428 315125 338494 -173074
832782868482821760 348400 315229 338508 -173057
832782868501034240 348434 315190 338566 -173050
832782868519246848 348394 315205 338515 -173063
832782868537459456 348355 315174 338576 -173094
832782868555671936 348376 315183 338547 -173012
832782868573884544 348400 315196 338602 -173059
832782868592097024 348373 315141 338525 -173040
832782868610309632 348403 315156 338506 -173048
832782868628522240 348367 315151 338600 -173055
832782868646734720 348383 315099 338541 -173071
832782868664947328 348368 315164 338513 -173042
832782868683159808 348412 315183 338595 -172995
832782868701372416 348414 315149 338531 -173063
832782868719584896 348406 315151 338547 -173060
832782868737797504 348388 315162 338590 -173029
832782868756010112 348395 315131 338584 -173056
832782868774222592 348409 315165 338581 -173074
832782868792435200 348405 315208 338606 -173076
832782868810647680 348410 315154 338574 -173119
832782868828860288 348429 315121 338572 -173046
832782868847072896 348386 315199 338558 -173099
832782868865285376 348426 315191 338579 -173041
832782868883497984 348402 315162 338560 -173044
832782868901710464 348337 315154 338515 -173091
832782868919923072 348391 315125 338496 -173055
832782868938135680 348393 315151 338562 -173043
832782868956348160 348370 315169 338569 -173077
832782868974560768 348331 315147 338498 -173072
832782868992773248 348345 315170 338558 -173080
832782869010985856 348368 315188 338577 -173051
832782869029198464 348435 315201 338565 -173048
832782869047410848 348417 315195 338600 -173054
832782869065623936 348370 315179 338612 -173078
832782869083837056 348370 315120 338544 -173112
832782869102050176 348396 315161 338586 -172994
832782869120263424 348426 315124 338547 -173040
832782869138476544 348420 315180 338624 -173026
832782869156689664 348389 315069 338565 -173063
832782869174902784 348361 315191 338540 -173074
832782869193115904 348406 315129 338522 -173071
832782869211329024 348403 315158 338510 -173117
832782869229542272 348367 315168 338527 -173108
832782869247755392 348402 315142 338513 -173064
832782869265968512 348380 315158 338466 -173052
832782869284181632 348419 315164 338550 -173041
832782869302394752 348435 315144 338544 -173060
832782869320607872 348366 315166 338545 -173073
832782869338821120 348417 315148 338630 -173039
832782869357034240 348404 315201 338573 -173073
832782869375247360 348424 315178 338622 -172978
832782869393460480 348411 315158 338564 -173023
832782869411673600 348427 315213 338516 -173044
832782869429886720 348341 315164 338539 -173033
832782869448099968 348380 315157 338532 -173077
832782869466313088 348375 315158 338571 -172978
832782869484526208 348379 315124 338532 -173098
832782869502739328 348389 315139 338606 -173029
832782869520952448 348352 315203 338540 -173123
832782869539165696 348389 315214 338569 -173060
832782869557378816 348365 315178 338571 -173072
832782869575591936 348407 315175 338544 -173035
832782869593805056 348397 315136 338563 -173037
832782869612018176 348396 315124 338612 -173041
832782869630231296 348385 315149 338556 -173037
832782869648444544 348359 315108 338557 -173065
832782869666657664 348385 315140 338562 -173077
832782869684870784 348362 315113 338540 -173055
832782869703083904 348429 315146 338542 -173036
832782869721297024 348426 315150 338494 -173041
832782869739510144 348367 315156 338514 -173079
832782869757723392 348395 315094 338546 -173055
832782869775936512 348371 315167 338546 -173034
832782869794149632 348443 315198 338577 -173035
832782869812362752 348492 315214 338617 -173091
832782869830575872 348490 315246 338635 -173038
832782869848788992 348471 315234 338620 -173056
832782869867002240 348421 315202 338546 -173051
832782869885215360 348465 315218 338577 -173012
832782869903428480 348377 315204 338551 -173020
832782869921641600 348451 315234 338589 -173033
832782869939854720 348443 315218 338632 -173064
832782869958067968 348430 315156 338560 -173064
832782869976281088 348424 315134 338520 -173065
832782869994494248 348410 315188 338529 -173047
832782870012707200 348424 315159 338535 -173041
832782870030920192 348447 315152 338547 -173054
832782870049133184 348463 315188 338579 -173047
832782870067346048 348386 315169 338521 -173079
832782870085559040 348433 315150 338552 -173007
832782870103772032 348413 315173 338576 -173041
832782870121985024 348414 315162 338582 -173046
832782870140198016 348470 315206 338580 -173051
832782870158410880 348373 315146 338563 -173073
832782870176623872 348430 315140 338516 -173085
832782870194836864 348383 315144 338487 -173116
832782870213049856 348366 315145 338469 -173071
832782870231262848 348352 315153 338462 -173080
832782870249475712 348412 315133 338511 -173052
832782870267688704 348386 315103 338538 -173072
832782870285901696 348437 315136 338557 -173039
832782870304114688 348391 315190 338565 -173065
832782870322327680 348405 315183 338575 -173048
832782870340540544 348454 315148 338605 -173059
832782870358753536 348459 315151 338548 -173009
832782870376966528 348450 315147 338560 -173037
832782870395179520 348492 315163 338574 -173052
832782870413392512 348422 315170 338579 -173092
832782870431605376 348423 315179 338602 -173024
832782870449818368 348434 315172 338608 -173065
832782870468031360 348371 315169 338522 -173085
832782870486244352 348400 315113 338496 -173052
832782870504457344 348390 315115 338562 -173054
832782870522670208 348396 315110 338514 -173029
832782870540883200 348417 315166 338531 -173088
832782870559096192 348374 315119 338523 -173099
832782870577309184 348384 315193 338543 -173009
832782870595522176 348371 315169 338558 -173041
832782870613735040 348472 315206 338610 -172972
832782870631948032 348447 315180 338575 -173070
832782870650161024 348444 315148 338564 -173038
832782870668374016 348395 315074 338466 -173092
832782870686587008 348390 315103 338474 -173082
832782870704799872 348392 315154 338495 -173077
832782870723012864 348403 315139 338527 -173106
832782870741225856 348375 315101 338500 -173124
832782870759438848 348389 315159 338531 -173088
832782870777651840 348434 315182 338525 -173115
832782870795864704 348357 315088 338446 -173091
832782870814077696 348358 315129 338490 -173126
832782870832290688 348366 315103 338522 -173096
832782870850503680 348389 315107 338463 -173162
832782870868716672 348371 315172 338511 -173128
832782870886929536 348396 315119 338541 -173094
832782870905142528 348365 315125 338538 -173094
832782870923355520 348305 315140 338526 -173093
832782870941568500 348370 315179 338543 -173051
832782870959780096 348408 315174 338634 -173046
832782870977991680 348388 315130 338531 -173055
832782870996203392 348359 315175 338566 -173056
832782871014414976 348351 315140 338521 -173057
832782871032626560 348443 315188 338550 -173050
832782871050838144 348383 315197 338529 -173085
832782871069049856 348421 315183 338562 -173072
832782871087261440 348366 315171 338524 -173060
832782871105473024 348343 315145 338498 -173069
832782871123684608 348409 315124 338537 -173115
832782871141896320 348413 315141 338544 -173052
832782871160107904 348360 315089 338541 -173100
832782871178319488 348410 315093 338509 -173060
832782871196531072 348402 315056 338441 -173077
832782871214742784 348319 315118 338498 -173114
832782871232954368 348406 315145 338494 -173047
832782871251165952 348380 315185 338568 -173042
832782871269377536 348418 315180 338557 -173087
832782871287589248 348382 315105 338550 -173060
832782871305800832 348363 315053 338461 -173110
832782871324012416 348408 315112 338541 -173031
832782871342224000 348453 315174 338585 -173085
832782871360435712 348399 315114 338554 -173046
832782871378647296 348351 315117 338497 -173091
832782871396858880 348361 315113 338530 -173112
832782871415070464 348358 315145 338525 -173044
832782871433282176 348352 315129 338592 -173071
832782871451493760 348338 315095 338532 -173097
832782871469705344 348406 315125 338558 -173065
832782871487916928 348411 315231 338564 -173085
832782871506128640 348405 315178 338555 -173010
832782871524340224 348422 315199 338591 -173001
832782871542551808 348427 315172 338574 -172959
832782871560763392 348405 315159 338542 -173044
832782871578975104 348404 315147 338564 -173019
832782871597186688 348388 315190 338599 -173024
832782871615398272 348363 315113 338540 -173013
832782871633609856 348421 315152 338562 -172993
832782871651821568 348373 315132 338539 -173021
832782871670033152 348351 315185 338546 -173034
832782871688244736 348359 315192 338539 -173072
832782871706456320 348355 315163 338569 -173044
832782871724668032 348409 315132 338568 -173037
832782871742879616 348428 315183 338545 -173063
832782871761091200 348413 315171 338524 -173062
832782871779302784 348421 315150 338548 -173028
832782871797514496 348431 315145 338585 -173052
832782871815726080 348440 315131 338549 -173008
832782871833937664 348406 315158 338527 -173077
832782871852149248 348352 315117 338491 -173072
832782871870360960 348356 315209 338566 -173087
832782871888572552 348396 315192 338544 -173067
832782871906784512 348400 315161 338504 -173081
832782871924996480 348363 315192 338483 -173109
832782871943208320 348376 315118 338524 -173098
832782871961420288 348342 315110 338490 -173086
832782871979632128 348384 315113 338485 -173097
832782871997844096 348388 315163 338557 -173081
832782872016055936 348414 315121 338543 -173074
832782872034267904 348414 315179 338474 -173110
832782872052479744 348383 315136 338505 -173112
832782872070691712 348393 315153 338549 -173096
832782872088903552 348401 315142 338544 -173073
832782872107115520 348351 315152 338462 -173058
832782872125327488 348382 315172 338465 -173091
832782872143539328 348369 315204 338494 -173088
832782872161751296 348417 315163 338576 -173044
832782872179963136 348424 315093 338493 -173112
832782872198175104 348380 315096 338462 -173099
832782872216386944 348412 315110 338531 -173068
832782872234598912 348395 315210 338548 -173093
832782872252810752 348427 315222 338515 -173099
832782872271022720 348405 315190 338493 -173076
832782872289234560 348345 315128 338560 -173131
832782872307446528 348361 315137 338490 -173140
832782872325658496 348356 315136 338477 -173132
832782872343870336 348317 315065 338459 -173100
832782872362082304 348349 315152 338541 -173073
832782872380294144 348341 315128 338478 -173074
832782872398506112 348378 315106 338483 -173097
832782872416717952 348407 315101 338514 -173064
832782872434929920 348420 315173 338502 -173079
832782872453141760 348459 315206 338529 -172999
832782872471353728 348413 315202 338596 -173045
832782872489565696 348413 315176 338581 -173013
832782872507777536 348418 315142 338517 -173052
832782872525989504 348408 315137 338548 -173075
832782872544201344 348446 315127 338609 -173043
832782872562413312 348404 315142 338591 -173062
832782872580625152 348388 315129 338500 -173069
832782872598837120 348386 315162 338520 -173056
832782872617048960 348425 315153 338529 -173071
832782872635260928 348389 315105 338464 -173109
832782872653472768 348392 315144 338494 -173089
832782872671684736 348386 315118 338526 -173082
832782872689896704 348353 315172 338482 -173117
832782872708108544 348407 315173 338585 -173057
832782872726320512 348417 315159 338568 -173078
832782872744532352 348451 315203 338584 -173041
832782872762744320 348383 315121 338527 -173068
832782872780956160 348389 315140 338548 -173086
832782872799168128 348394 315164 338529 -173054
832782872817379968 348367 315142 338524 -173078
832782872835591874 348417 315136 338597 -173075
832782872853805056 348417 315158 338544 -173030
832782872872018176 348412 315155 338558 -173040
832782872890231168 348437 315213 338550 -173027
832782872908444288 348401 315153 338533 -173096
832782872926657408 348404 315162 338543 -173073
832782872944870528 348390 315171 338546 -173036
832782872963083520 348405 315151 338526 -173077
832782872981296640 348374 315148 338525 -173045
832782872999509760 348341 315137 338532 -173121
832782873017722752 348365 315155 338584 -173113
832782873035935872 348391 315134 338557 -173070
832782873054148992 348373 315175 338510 -173057
832782873072362112 348367 315125 338563 -173046
832782873090575104 348322 315152 338547 -173138
832782873108788224 348326 315155 338509 -173109
832782873127001344 348400 315203 338585 -173058
832782873145214336 348370 315138 338525 -173123
832782873163427456 348377 315141 338527 -173109
832782873181640576 348427 315193 338543 -173069
832782873199853696 348437 315187 338577 -173097
832782873218066688 348394 315238 338552 -173075
832782873236279808 348448 315186 338545 -173014
832782873254492928 348351 315206 338538 -173086
832782873272705920 348408 315195 338543 -173061
832782873290919040 348401 315215 338564 -173072
832782873309132160 348410 315185 338601 -173056
832782873327345280 348402 315193 338573 -173070
832782873345558272 348382 315154 338539 -173105
832782873363771392 348422 315170 338593 -173029
832782873381984512 348407 315170 338573 -173071
832782873400197632 348374 315145 338591 -173034
832782873418410624 348359 315147 338512 -173054
832782873436623744 348386 315150 338560 -173010
832782873454836864 348367 315094 338586 -173062
832782873473049856 348411 315157 338576 -173026
832782873491262976 348351 315167 338513 -173082
832782873509476096 348358 315091 338498 -173058
832782873527689216 348404 315141 338532 -173022
832782873545902208 348414 315118 338487 -173062
832782873564115328 348384 315120 338546 -173043
832782873582328448 348367 315136 338446 -173117
832782873600541440 348406 315156 338497 -173091
832782873618754560 348372 315144 338474 -173057
832782873636967680 348405 315165 338535 -173078
832782873655180800 348405 315136 338500 -173028
832782873673393792 348427 315158 338568 -173059
832782873691606912 348391 315156 338551 -173014
832782873709820032 348435 315187 338583 -173056
832782873728033024 348433 315173 338539 -173068
832782873746246144 348439 315167 338590 -173054
832782873764459264 348426 315184 338561 -173065
832782873782672230 348446 315209 338531 -173072
832782873800883584 348411 315170 338530 -173073
832782873819094912 348299 315151 338514 -173079
832782873837306112 348373 315166 338494 -173076
832782873855517440 348350 315128 338494 -173059
832782873873728640 348359 315195 338608 -173041
832782873891939968 348399 315159 338508 -173070
832782873910151168 348409 315146 338459 -173063
832782873928362496 348392 315190 338495 -173054
832782873946573824 348376 315175 338524 -173086
832782873964785024 348341 315152 338566 -173087
832782873982996352 348409 315200 338526 -173039
832782874001207552 348348 315128 338487 -173056
832782874019418880 348341 315202 338551 -173110
832782874037630080 348435 315191 338489 -173054
832782874055841408 348424 315155 338508 -173073
832782874074052736 348392 315145 338546 -173073
832782874092263936 348400 315134 338561 -173103
832782874110475264 348485 315175 338566 -173008
832782874128686464 348389 315189 338554 -173048
832782874146897792 348383 315192 338568 -173061
832782874165109120 348374 315155 338525 -173086
832782874183320320 348383 315171 338545 -173108
832782874201531648 348378 315169 338560 -173104
832782874219742848 348421 315141 338581 -173057
832782874237954176 348363 315071 338524 -173030
832782874256165376 348400 315137 338526 -173000
832782874274376704 348491 315171 338547 -173065
832782874292588032 348413 315111 338524 -173060
832782874310799232 348453 315163 338561 -173010
832782874329010560 348382 315137 338541 -173073
832782874347221760 348401 315180 338597 -173091
832782874365433088 348441 315196 338565 -173072
832782874383644288 348367 315189 338563 -173078
832782874401855616 348385 315171 338558 -173067
832782874420066944 348429 315197 338581 -173078
832782874438278144 348372 315138 338577 -173106
832782874456489472 348374 315106 338503 -173092
832782874474700672 348382 315158 338544 -173045
832782874492912000 348358 315135 338531 -173052
832782874511123200 348311 315053 338478 -173080
832782874529334528 348447 315115 338544 -173057
832782874547545856 348387 315162 338534 -173080
832782874565757056 348383 315166 338558 -173075
832782874583968384 348407 315122 338558 -173022
832782874602179584 348402 315117 338504 -173030
832782874620390912 348404 315141 338564 -173042
832782874638602240 348403 315174 338547 -173027
832782874656813440 348359 315140 338603 -173040
832782874675024648 348361 315171 338572 -173043
832782874693237376 348403 315162 338572 -173012
832782874711450112 348451 315182 338516 -173052
832782874729662720 348439 315215 338593 -173059
832782874747875456 348437 315224 338584 -173045
832782874766088192 348421 315163 338559 -173037
832782874784300928 348404 315186 338610 -173031
832782874802513536 348348 315163 338557 -173121
832782874820726272 348464 315171 338624 -173062
832782874838939008 348440 315153 338586 -173050
832782874857151744 348440 315132 338608 -173055
832782874875364352 348410 315130 338548 -173035
832782874893577088 348378 315135 338538 -173042
832782874911789824 348414 315199 338514 -173040
832782874930002560 348361 315155 338500 -173041
832782874948215168 348445 315204 338544 -173026
832782874966427904 348401 315144 338510 -173068
832782874984640640 348348 315174 338561 -173091
832782875002853376 348396 315142 338548 -173045
832782875021065984 348367 315122 338510 -173088
832782875039278720 348363 315078 338535 -173076
832782875057491456 348360 315099 338526 -173069
832782875075704064 348371 315162 338592 -173029
832782875093916800 348467 315168 338592 -173041
832782875112129536 348423 315101 338564 -173047
832782875130342272 348380 315133 338524 -173113
832782875148554880 348433 315183 338581 -173038
832782875166767616 348420 315185 338565 -173045
832782875184980352 348441 315146 338530 -173022
832782875203193088 348413 315236 338495 -173031
832782875221405696 348403 315170 338504 -173050
832782875239618432 348457 315155 338592 -173038
832782875257831168 348374 315157 338544 -173054
832782875276043904 348420 315205 338551 -173018
832782875294256512 348394 315185 338554 -173047
832782875312469248 348401 315183 338502 -173069
832782875330681984 348428 315148 338525 -173054
832782875348894720 348446 315192 338569 -173063
832782875367107328 348402 315184 338588 -173095
832782875385320064 348408 315144 338504 -173069
832782875403532800 348407 315152 338571 -173080
832782875421745408 348354 315157 338520 -173067
832782875439958144 348361 315167 338492 -173092
832782875458170880 348407 315163 338557 -173088
832782875476383616 348362 315124 338558 -173113
832782875494596224 348385 315152 338541 -173056
832782875512808960 348376 315150 338545 -173022
832782875531021696 348303 315111 338538 -173035
832782875549234432 348380 315178 338577 -173041
832782875567447040 348348 315147 338480 -173113
832782875585659776 348423 315198 338566 -173063
832782875603872512 348419 315128 338551 -173021
832782875622085170 348393 315138 338514 -173046
832782875640299136 348377 315175 338513 -173064
832782875658513152 348400 315190 338539 -173033
832782875676727168 348431 315159 338468 -173069
832782875694941184 348427 315190 338554 -173064
832782875713155200 348401 315111 338463 -173149
832782875731369216 348455 315172 338555 -173046
832782875749583104 348401 315165 338497 -173131
832782875767797120 348376 315148 338511 -173019
832782875786011136 348435 315163 338508 -173008
832782875804225152 348424 315209 338515 -173051
832782875822439168 348397 315232 338510 -173050
832782875840653184 348397 315201 338579 -173078
832782875858867200 348376 315120 338545 -173089
832782875877081216 348391 315176 338526 -173053
832782875895295232 348458 315191 338520 -173069
832782875913509248 348475 315195 338466 -173061
832782875931723264 348468 315186 338481 -173090
832782875949937280 348371 315068 338465 -173103
832782875968151168 348348 315085 338474 -173095
832782875986365184 348382 315083 338505 -173072
832782876004579200 348371 315090 338476 -173112
832782876022793216 348408 315148 338477 -173103
832782876041007232 348457 315193 338507 -173068
832782876059221248 348492 315196 338543 -173046
832782876077435264 348412 315191 338593 -173073
832782876095649280 348389 315136 338496 -173136
832782876113863296 348413 315182 338495 -173093
832782876132077312 348344 315137 338489 -173100
832782876150291328 348354 315220 338542 -173057
832782876168505216 348336 315171 338499 -173088
832782876186719232 348383 315201 338650 -173026
832782876204933248 348370 315166 338617 -173120
832782876223147264 348382 315149 338597 -173062
832782876241361280 348428 315153 338558 -173002
832782876259575296 348407 315153 338597 -173091
832782876277789312 348394 315156 338537 -173060
832782876296003328 348407 315189 338514 -173064
832782876314217344 348394 315138 338497 -173053
832782876332431360 348726 315349 338462 -173124
832782876350645376 349167 315759 338542 -173065
832782876368859392 349262 315944 338523 -173053
832782876387073280 349273 315891 338458 -173125
832782876405287296 349140 315833 338448 -173082
832782876423501312 349162 315925 338494 -173057
832782876441715328 349259 316034 338523 -173047
832782876459929392 349435 316137 338516 -173058
832782876478142848 349663 316344 338533 -173027
832782876496356352 349699 316449 338514 -173093
832782876514569984 349768 316549 338489 -173062
832782876532783488 349929 316647 338525 -173102
832782876550996992 350074 316831 338520 -173144
832782876569210496 350187 316890 338554 -173063
832782876587424128 350398 317036 338499 -173082
832782876605637632 350665 317325 338558 -173074
832782876623851136 350738 317422 338551 -173048
832782876642064768 350626 317313 338556 -173024
832782876660278272 350381 317074 338571 -173079
832782876678491776 350113 316821 338569 -173052
832782876696705408 349949 316671 338513 -173079
832782876714918912 349909 316640 338539 -173016
832782876733132416 349914 316685 338470 -173100
832782876751345920 350086 316856 338476 -173070
832782876769559552 350207 316949 338533 -173035
832782876787773056 350323 317032 338527 -173055
832782876805986560 350415 317129 338591 -173047
832782876824200192 350467 317179 338537 -173029
832782876842413696 350579 317317 338513 -173038
832782876860627200 350725 317510 338514 -173054
832782876878840832 351044 317792 338508 -173078
832782876897054336 351194 317914 338548 -173078
832782876915267840 351178 317889 338541 -173057
832782876933481344 351055 317712 338581 -173050
832782876951694976 350728 317440 338575 -173072
832782876969908480 350480 317202 338538 -173060
832782876988121984 350308 317012 338556 -173104
832782877006335616 350286 317063 338639 -173067
832782877024549120 350440 317213 338642 -172986
832782877042762624 350518 317275 338576 -173069
832782877060976128 350680 317352 338539 -173051
832782877079189760 350747 317478 338558 -173089
832782877097403264 350787 317524 338581 -172991
832782877115616768 350852 317571 338561 -173070
832782877133830400 350962 317790 338596 -173043
832782877152043904 351155 317910 338555 -173052
832782877170257408 351371 318096 338561 -173054
832782877188471040 351473 318154 338535 -173063
832782877206684544 351348 318076 338576 -173070
832782877224898156 351106 317769 338542 -173074
832782877243111040 350805 317516 338514 -173063
832782877261323904 350522 317231 338527 -173044
832782877279536768 350421 317106 338507 -173074
832782877297749760 350464 317117 338549 -173059
832782877315962624 350572 317274 338583 -173047
832782877334175488 350749 317511 338615 -173011
832782877352388352 350801 317553 338539 -173043
832782877370601216 350877 317576 338602 -173080
832782877388814208 350924 317626 338603 -173056
832782877407027072 351053 317650 338561 -173029
832782877425239936 351164 317809 338575 -173006
832782877443452800 351336 318002 338551 -173047
832782877461665664 351499 318145 338538 -173022
832782877479878528 351470 318178 338506 -173071
832782877498091520 351313 318028 338585 -173050
832782877516304384 351039 317726 338602 -173087
832782877534517248 350757 317441 338632 -173059
832782877552730112 350624 317247 338586 -173043
832782877570942976 350498 317155 338532 -173025
832782877589155968 350574 317218 338580 -172999
832782877607368832 350699 317413 338573 -173036
832782877625581696 350791 317530 338562 -173023
832782877643794560 350878 317670 338575 -173078
832782877662007424 350948 317653 338496 -173033
832782877680220416 351023 317697 338512 -173074
832782877698433280 351095 317809 338615 -173045
832782877716646144 351273 317959 338563 -173086
832782877734859008 351422 318151 338497 -173086
832782877753071872 351572 318324 338633 -173059
832782877771284736 351475 318227 338588 -173042
832782877789497728 351242 317996 338521 -173028
832782877807710592 350972 317704 338591 -173026
832782877825923456 350635 317384 338557 -173059
832782877844136320 350510 317212 338545 -173028
832782877862349184 350474 317204 338522 -173021
832782877880562176 350593 317317 338569 -173079
832782877898775040 350716 317466 338540 -173074
832782877916987904 350905 317569 338571 -173037
832782877935200768 350966 317658 338559 -173047
832782877953413632 350993 317661 338557 -173068
832782877971626624 351032 317721 338530 -173042
832782877989839456 351066 317802 338562 -173103
832782878008052352 351335 318002 338561 -173082
832782878026265216 351500 318219 338571 -173116
832782878044478080 351579 318376 338583 -173082
832782878062690944 351397 318177 338483 -173095
832782878080903808 351148 317923 338525 -173031
832782878099116672 350813 317575 338490 -173103
832782878117329408 350623 317381 338555 -173047
832782878135542272 350499 317165 338503 -173094
832782878153755136 350605 317252 338477 -173106
832782878171968000 350649 317391 338494 -173109
832782878190180864 350861 317511 338510 -173096
832782878208393728 350943 317638 338548 -173119
832782878226606592 351027 317716 338551 -173071
832782878244819456 351074 317781 338597 -173028
832782878263032320 351058 317782 338541 -172999
832782878281245184 351226 317925 338585 -173053
832782878299457920 351422 318092 338620 -173080
832782878317670784 351630 318260 338512 -173097
832782878335883648 351624 318304 338543 -173105
832782878354096512 351429 318130 338537 -173056
832782878372309376 351089 317783 338522 -173067
832782878390522240 350756 317520 338531 -173056
832782878408735104 350568 317274 338557 -173022
832782878426947968 350535 317212 338546 -173058
832782878445160832 350553 317257 338531 -173108
832782878463373696 350697 317418 338569 -173048
832782878481586432 350850 317544 338562 -173026
832782878499799296 350976 317683 338577 -173047
832782878518012160 351046 317731 338629 -173025
832782878536225024 351126 317859 338590 -173047
832782878554437888 351161 317875 338583 -173057
832782878572650752 351313 318020 338603 -173042
832782878590863616 351482 318209 338521 -173031
832782878609076480 351659 318370 338610 -173057
832782878627289344 351642 318311 338592 -173014
832782878645502208 351301 318028 338517 -173071
832782878663715072 351021 317760 338552 -173067
832782878681927808 350733 317489 338560 -173091
832782878700140672 350567 317252 338590 -173070
832782878718353536 350492 317235 338557 -173045
832782878736566400 350634 317339 338568 -173027
832782878754779226 350812 317528 338525 -173047
832782878772991488 350977 317653 338573 -173087
832782878791203712 350977 317692 338490 -173119
832782878809415936 351085 317800 338540 -173079
832782878827628160 351096 317763 338533 -173071
832782878845840384 351250 317912 338457 -173092
832782878864052608 351391 318080 338456 -173099
832782878882264832 351617 318280 338578 -173052
832782878900477184 351615 318345 338533 -173054
832782878918689408 351478 318179 338499 -173074
832782878936901632 351280 317960 338566 -173067
832782878955113856 350968 317649 338556 -173067
832782878973326080 350733 317424 338549 -173030
832782878991538304 350549 317257 338581 -173075
832782879009750528 350578 317305 338529 -173093
832782879027962752 350767 317454 338610 -173082
832782879046174976 350842 317544 338535 -173082
832782879064387200 351005 317704 338574 -173039
832782879082599424 351052 317765 338576 -173070
832782879100811648 351084 317742 338542 -173077
832782879119024000 351117 317827 338557 -173114
832782879137236224 351251 317931 338508 -173003
832782879155448448 351455 318137 338554 -173058
832782879173660672 351643 318338 338606 -173079
832782879191872896 351669 318396 338565 -172974
832782879210085120 351477 318223 338527 -173038
832782879228297344 351272 317969 338643 -172999
832782879246509568 350846 317613 338633 -173004
832782879264721792 350569 317329 338507 -173122
832782879282934016 350460 317250 338531 -173071
832782879301146240 350560 317337 338545 -173039
832782879319358464 350694 317459 338524 -173079
832782879337570688 350918 317632 338572 -173040
832782879355783040 350987 317673 338540 -173122
832782879373995264 351114 317820 338566 -173014
832782879392207488 351143 317858 338569 -173067
832782879410419712 351205 317841 338497 -173117
832782879428631936 351294 317977 338566 -173070
832782879446844160 351483 318184 338525 -173060
832782879465056384 351686 318367 338582 -173060
832782879483268608 351652 318339 338589 -173110
832782879501480832 351417 318106 338582 -173126
832782879519693060 351067 317759 338580 -173065
832782879537905408 350789 317474 338566 -173058
832782879556117760 350541 317203 338560 -173085
832782879574330240 350587 317222 338582 -173053
832782879592542592 350686 317448 338588 -173025
832782879610755072 350837 317555 338612 -173048
832782879628967424 350959 317735 338597 -173036
832782879647179904 351002 317801 338508 -173054
832782879665392256 351086 317852 338559 -173024
832782879683604736 351171 317846 338567 -173052
832782879701817088 351277 317933 338544 -173048
832782879720029568 351466 318077 338539 -173013
832782879738241920 351598 318291 338529 -173035
832782879756454400 351758 318438 338555 -173024
832782879774666752 351613 318298 338496 -173039
832782879792879232 351343 318076 338579 -173062
832782879811091584 351027 317686 338588 -173095
832782879829304064 350745 317461 338540 -173064
832782879847516416 350666 317354 338593 -173038
832782879865728896 350652 317353 338640 -173037
832782879883941248 350774 317505 338659 -173014
832782879902153728 350893 317612 338554 -173030
832782879920366080 351011 317720 338614 -173056
832782879938578560 351047 317804 338554 -173122
832782879956790912 351034 317818 338566 -173082
832782879975003392 351155 317870 338559 -173058
832782879993215744 351343 317986 338520 -173091
832782880011428224 351505 318153 338590 -173064
832782880029640576 351660 318326 338530 -173057
832782880047853056 351697 318409 338492 -173026
832782880066065408 351513 318192 338523 -173050
832782880084277888 351263 317969 338566 -173068
832782880102490240 350967 317656 338610 -173047
832782880120702720 350693 317368 338602 -173096
832782880138915072 350574 317283 338562 -173073
832782880157127552 350686 317381 338641 -173038
832782880175339904 350810 317468 338601 -173094
832782880193552384 351005 317698 338581 -173033
832782880211764736 351058 317797 338624 -173003
832782880229977216 351156 317845 338622 -173013
832782880248189568 351172 317911 338618 -173002
832782880266402048 351254 317952 338627 -173008
832782880284614522 351378 318067 338579 -173072
832782880302824704 351565 318259 338600 -173057
832782880321034880 351715 318387 338529 -173038
832782880339245184 351733 318371 338560 -173078
832782880357455360 351474 318181 338563 -173025
832782880375665664 351204 317895 338629 -173071
832782880393875840 350819 317517 338598 -173087
832782880412086144 350686 317390 338639 -173002
832782880430296320 350640 317351 338585 -173017
832782880448506624 350689 317407 338581 -173046
832782880466716800 350868 317546 338567 -173029
832782880484927104 351030 317705 338517 -173027
832782880503137280 351084 317818 338607 -173029
832782880521347584 351239 317979 338572 -173042
832782880539557760 351214 317963 338574 -173039
832782880557768064 351306 317985 338584 -173021
832782880575978240 351473 318117 338562 -173058
832782880594188544 351683 318392 338602 -173055
832782880612398720 351796 318407 338568 -173068
832782880630608896 351660 318323 338541 -173081
832782880648819200 351430 318050 338582 -173035
832782880667029376 351100 317785 338600 -173085
832782880685239680 350760 317442 338527 -173093
832782880703449856 350655 317318 338576 -173099
832782880721660160 350694 317312 338610 -173001
832782880739870336 350731 317416 338556 -173029
832782880758080640 350897 317605 338576 -173030
832782880776290816 350986 317764 338602 -173067
832782880794501120 351099 317796 338607 -173036
832782880812711296 351124 317807 338577 -173018
832782880830921600 351219 317879 338595 -173005
832782880849131776 351265 317991 338522 -173030
832782880867342080 351508 318187 338577 -173038
832782880885552256 351701 318433 338572 -173050
832782880903762432 351788 318506 338623 -173010
832782880921972736 351627 318340 338631 -173053
832782880940182912 351317 318024 338564 -173076
832782880958393216 350981 317658 338572 -173008
832782880976603392 350820 317460 338580 -173040
832782880994813696 350629 317278 338526 -173008
832782881013023872 350655 317379 338550 -173088
832782881031234176 350929 317607 338520 -173013
832782881049444438 350981 317735 338603 -172996
832782881067656832 351116 317751 338547 -173087
832782881085869184 351101 317826 338509 -173075
832782881104081408 351189 317904 338595 -173047
832782881122293760 351265 317978 338563 -173086
832782881140506112 351472 318157 338567 -173003
832782881158718336 351641 318307 338558 -173036
832782881176930688 351730 318445 338539 -173006
832782881195143040 351718 318415 338577 -172992
832782881213355264 351563 318243 338580 -173029
832782881231567616 351222 317888 338559 -173000
832782881249779840 350931 317624 338566 -173080
832782881267992192 350720 317376 338580 -173033
832782881286204544 350623 317312 338633 -173035
832782881304416768 350698 317387 338490 -173050
832782881322629120 350806 317473 338541 -173046
832782881340841472 350942 317619 338528 -173097
832782881359053696 351084 317815 338539 -173046
832782881377266048 351136 317750 338597 -172993
832782881395478400 351195 317780 338575 -173045
832782881413690624 351234 317906 338552 -173057
832782881431902976 351447 318087 338502 -173065
832782881450115328 351636 318325 338505 -173058
832782881468327552 351731 318410 338564 -173157
832782881486539904 351655 318312 338516 -173123
832782881504752256 351382 318077 338480 -173147
832782881522964480 351072 317772 338532 -173073
832782881541176832 350885 317596 338556 -173067
832782881559389056 350672 317333 338544 -173092
832782881577601408 350629 317343 338489 -173098
832782881595813760 350739 317435 338544 -173065
832782881614025984 350912 317614 338531 -173089
832782881632238336 351047 317683 338482 -173106
832782881650450688 351106 317758 338549 -173092
832782881668662912 351174 317816 338521 -173074
832782881686875264 351233 317877 338561 -173029
832782881705087616 351352 317976 338524 -173038
832782881723299840 351480 318149 338458 -173043
832782881741512192 351664 318390 338548 -173074
832782881759724544 351716 318418 338524 -173098
832782881777936768 351644 318302 338566 -173080
832782881796149120 351295 317982 338533 -173127
832782881814361322 351035 317686 338569 -173086
832782881832573824 350756 317449 338631 -173085
832782881850786304 350652 317341 338666 -173058
832782881868998912 350663 317418 338598 -173063
832782881887211392 350734 317543 338571 -173092
832782881905423872 350924 317688 338594 -173090
832782881923636480 351088 317787 338596 -173023
832782881941848960 351153 317865 338551 -173058
832782881960061440 351158 317844 338504 -173095
832782881978274048 351221 317943 338542 -173089
832782881996486528 351479 318220 338555 -173067
832782882014699008 351597 318339 338493 -173088
832782882032911616 351658 318409 338521 -173121
832782882051124096 351732 318443 338592 -173024
832782882069336704 351518 318267 338532 -173037
832782882087549184 351195 317954 338593 -173076
832782882105761664 350931 317587 338531 -173092
832782882123974272 350770 317416 338591 -173082
832782882142186752 350647 317304 338531 -173106
832782882160399232 350733 317414 338644 -173067
832782882178611840 350882 317541 338545 -173093
832782882196824320 351062 317734 338538 -173065
832782882215036800 351119 317833 338535 -173095
832782882233249408 351185 317848 338560 -173031
832782882251461888 351248 317891 338540 -173026
832782882269674368 351312 318036 338539 -173037
832782882287886976 351450 318144 338521 -173059
832782882306099456 351651 318309 338491 -173149
832782882324311936 351775 318474 338483 -173038
832782882342524544 351724 318390 338550 -173044
832782882360737024 351429 318142 338557 -173043
832782882378949504 351174 317785 338533 -173017
832782882397162112 350835 317457 338583 -173025
832782882415374592 350674 317337 338588 -173045
832782882433587200 350637 317291 338580 -173067
832782882451799680 350721 317364 338514 -173087
832782882470012160 350861 317560 338477 -173089
832782882488224768 350994 317697 338588 -173088
832782882506437248 351081 317801 338560 -173095
832782882524649728 351164 317889 338613 -173052
832782882542862336 351221 317880 338543 -173041
832782882561074816 351280 318012 338522 -173094
832782882579287362 351513 318225 338562 -173010
832782882597500032 351635 318307 338514 -173098
832782882615712640 351751 318438 338533 -173062
832782882633925248 351627 318303 338495 -173081
832782882652137984 351377 318058 338503 -173011
832782882670350592 351035 317748 338555 -173092
832782882688563200 350764 317519 338534 -173089
832782882706775808 350654 317385 338560 -173081
832782882724988416 350660 317381 338610 -173070
832782882743201152 350750 317505 338574 -173081
832782882761413760 350947 317620 338495 -173137
832782882779626368 351148 317741 338582 -173057
832782882797838976 351114 317826 338576 -173099
832782882816051584 351194 317883 338600 -173037
832782882834264320 351246 317949 338559 -173071
832782882852476928 351386 318113 338590 -173071
832782882870689536 351564 318263 338557 -173045
832782882888902144 351724 318432 338588 -173051
832782882907114752 351748 318475 338545 -173048
832782882925327488 351570 318260 338535 -173086
832782882943540096 351285 317991 338557 -173026
832782882961752704 350902 317644 338549 -173078
832782882979965312 350771 317364 338564 -173047
832782882998177920 350602 317304 338571 -173016
832782883016390656 350784 317516 338525 -173016
832782883034603264 350884 317635 338542 -173018
832782883052815872 351037 317765 338588 -173044
832782883071028480 351170 317878 338593 -173063
832782883089241088 351153 317860 338593 -173095
832782883107453824 351252 317885 338584 -173046
832782883125666432 351345 317930 338532 -173075
832782883143879040 351466 318103 338612 -173047
832782883162091648 351628 318362 338607 -173019
832782883180304256 351772 318447 338560 -173094
832782883198516992 351750 318442 338520 -173099
832782883216729600 351479 318161 338510 -173122
832782883234942208 351154 317876 338584 -173114
832782883253154816 350867 317609 338568 -173104
832782883271367424 350652 317363 338551 -173106
832782883289580160 350655 317348 338593 -173078
832782883307792768 350696 317427 338478 -173079
832782883326005376 350869 317631 338487 -173104
832782883344217978 351041 317759 338499 -173085
832782883362431616 351089 317892 338539 -173125
832782883380645248 351163 317867 338559 -173102
832782883398858880 351167 317880 338538 -173067
832782883417072512 351342 318012 338550 -173098
832782883435286272 351495 318182 338500 -173077
832782883453499904 351756 318409 338571 -173097
832782883471713536 351885 318486 338568 -173046
832782883489927168 351722 318382 338628 -173057
832782883508140800 351366 318120 338516 -173090
832782883526354432 351123 317899 338470 -173110
832782883544568064 350829 317570 338457 -173061
832782883562781824 350621 317349 338551 -173109
832782883580995456 350693 317380 338525 -173097
832782883599209088 350788 317444 338543 -173096
832782883617422720 350998 317597 338549 -173077
832782883635636352 351097 317760 338491 -173089
832782883653849984 351220 317877 338545 -173073
832782883672063744 351207 317870 338526 -173096
832782883690277376 351300 318000 338537 -173123
832782883708491008 351391 318062 338500 -173122
832782883726704640 351697 318331 338620 -173076
832782883744918272 351767 318486 338573 -173073
832782883763131904 351843 318496 338557 -173092
832782883781345536 351620 318340 338482 -173055
832782883799559296 351321 318014 338459 -173080
832782883817772928 351035 317716 338562 -173029
832782883835986560 350798 317511 338527 -173039
832782883854200192 350644 317401 338549 -173019
832782883872413824 350729 317409 338478 -173094
832782883890627456 350942 317579 338508 -173023
832782883908841088 351037 317686 338589 -173070
832782883927054848 351109 317812 338575 -173081
832782883945268480 351149 317898 338546 -173034
832782883963482112 351235 317904 338557 -173044
832782883981695744 351305 317965 338490 -173114
832782883999909376 351505 318160 338520 -173045
832782884018123008 351644 318353 338566 -173068
832782884036336768 351785 318516 338541 -173069
832782884054550400 351751 318480 338528 -173091
832782884072764032 351546 318254 338528 -173106
832782884090977664 351239 317909 338538 -173123
832782884109191322 350876 317603 338493 -173091
832782884127405184 350700 317386 338522 -173090
832782884145619072 350652 317350 338527 -173114
832782884163832960 350732 317389 338549 -173146
832782884182046848 350887 317567 338539 -173080
832782884200260608 351143 317784 338541 -173031
832782884218474496 351108 317891 338554 -173046
832782884236688384 351139 317926 338531 -173105
832782884254902272 351221 317937 338569 -173080
832782884273116160 351278 318062 338531 -173098
832782884291330048 351484 318222 338526 -173132
832782884309543936 351679 318377 338516 -173102
832782884327757696 351767 318502 338555 -173117
832782884345971584 351629 318335 338527 -173126
832782884364185472 351387 318134 338516 -173111
832782884382399360 351087 317746 338542 -173097
832782884400613248 350795 317491 338533 -173111
832782884418827136 350659 317304 338486 -173114
832782884437040896 350682 317381 338529 -173095
832782884455254784 350780 317502 338520 -173045
832782884473468672 350943 317703 338528 -173094
832782884491682560 351024 317800 338547 -173070
832782884509896448 351139 317848 338522 -173079
832782884528110336 351203 317869 338544 -173027
832782884546324224 351393 318057 338614 -173107
832782884564537984 351431 318119 338567 -173080
832782884582751872 351577 318275 338561 -173081
832782884600965760 351753 318526 338557 -173096
832782884619179648 351729 318530 338599 -173103
832782884637393536 351621 318397 338566 -173063
832782884655607424 351358 318035 338527 -173050
832782884673821312 351051 317677 338510 -173064
832782884692035072 350819 317458 338552 -173089
832782884710248960 350628 317312 338528 -173074
832782884728462848 350703 317401 338577 -173059
832782884746676736 350884 317535 338563 -173031
832782884764890624 351048 317738 338581 -173079
832782884783104512 351135 317883 338569 -173056
832782884801318400 351149 317878 338469 -173081
832782884819532160 351236 317943 338556 -173090
832782884837746048 351288 318034 338554 -173017
832782884855959936 351442 318182 338534 -173070
832782884874173820 351637 318314 338535 -173093
832782884892384768 351835 318542 338615 -173027
832782884910595712 351797 318499 338568 -173077
832782884928806784 351626 318254 338563 -173103
832782884947017728 351278 317952 338550 -173026
832782884965228800 350909 317622 338524 -173080
832782884983439744 350720 317393 338520 -173087
832782885001650816 350759 317482 338573 -173079
832782885019861760 350800 317478 338520 -173041
832782885038072704 350958 317602 338557 -173071
832782885056283776 351137 317742 338605 -173026
832782885074494720 351149 317825 338595 -173102
832782885092705792 351229 317977 338626 -173023
832782885110916736 351276 318000 338577 -173099
832782885129127808 351356 318073 338545 -173109
832782885147338752 351574 318246 338595 -173080
832782885165549696 351730 318449 338627 -173062
832782885183760768 351826 318501 338591 -173107
832782885201971712 351722 318441 338592 -173057
832782885220182784 351458 318198 338545 -173077
832782885238393728 351146 317865 338560 -173079
832782885256604800 350788 317533 338514 -173110
832782885274815744 350697 317393 338546 -173058
832782885293026688 350663 317407 338513 -173127
832782885311237760 350869 317458 338529 -173088
832782885329448704 350994 317649 338552 -173096
832782885347659776 351139 317792 338537 -173091
832782885365870720 351232 317829 338542 -173098
832782885384081792 351178 317814 338545 -173093
832782885402292736 351278 317996 338611 -173100
832782885420503680 351391 318086 338596 -173044
832782885438714752 351549 318233 338575 -173108
832782885456925696 351714 318433 338565 -173117
832782885475136768 351792 318518 338508 -173068
832782885493347712 351703 318349 338509 -173069
832782885511558784 351579 318183 338541 -173071
832782885529769728 351082 317723 338540 -173070
832782885547980672 350817 317524 338564 -173090
832782885566191744 350730 317409 338505 -173062
832782885584402688 350747 317405 338534 -173131
832782885602613760 350840 317505 338480 -173079
832782885620824704 351048 317765 338499 -173054
832782885639035768 351117 317825 338506 -173064
832782885657246208 351210 317933 338543 -173057
832782885675456640 351216 317976 338497 -173059
832782885693666944 351290 318029 338530 -173019
832782885711877376 351453 318160 338505 -173081
832782885730087680 351628 318384 338512 -173072
832782885748298112 351845 318542 338571 -173062
832782885766508544 351799 318513 338598 -173021
832782885784718848 351584 318325 338594 -173057
832782885802929280 351237 317986 338495 -173075
832782885821139584 350886 317677 338572 -173067
832782885839350016 350690 317481 338538 -173064
832782885857560448 350639 317336 338514 -173090
832782885875770752 350720 317451 338589 -173058
832782885893981184 350876 317602 338530 -173117
832782885912191488 351010 317777 338527 -173142
832782885930401920 351139 317897 338502 -173064
832782885948612352 351140 317874 338488 -173108
832782885966822656 351176 317931 338497 -173094
832782885985033088 351303 318019 338545 -173089
832782886003243392 351456 318202 338494 -173126
832782886021453824 351807 318495 338500 -173095
832782886039664256 351852 318459 338510 -173070
832782886057874560 351801 318451 338558 -173034
832782886076084992 351535 318209 338556 -173064
832782886094295296 351181 317880 338568 -173061
832782886112505728 350912 317574 338597 -173058
832782886130716160 350676 317394 338526 -173119
832782886148926464 350724 317406 338590 -173068
832782886167136896 350822 317460 338556 -173051
832782886185347328 350959 317672 338567 -173070
832782886203557632 351137 317841 338551 -173024
832782886221768064 351202 317908 338509 -173031
832782886239978368 351228 317916 338528 -173074
832782886258188800 351238 317978 338512 -173097
832782886276399232 351405 318068 338500 -173092
832782886294609536 351514 318266 338546 -173092
832782886312819968 351740 318457 338468 -173086
832782886331030272 351826 318509 338523 -173082
832782886349240704 351677 318364 338542 -173033
832782886367451136 351396 318136 338489 -173130
832782886385661440 351115 317775 338516 -173069
832782886403871782 350810 317519 338563 -173026
832782886422082688 350712 317386 338541 -173070
832782886440293632 350750 317440 338562 -173029
832782886458504448 350903 317519 338521 -173094
832782886476715392 351052 317667 338557 -173087
832782886494926208 351143 317800 338529 -173085
832782886513137152 351165 317902 338569 -173090
832782886531347968 351277 317978 338492 -173113
832782886549558912 351370 318010 338522 -173068
832782886567769856 351453 318135 338567 -173067
832782886585980672 351647 318298 338568 -173041
832782886604191616 351838 318541 338557 -173048
832782886622402432 351818 318512 338528 -173096
832782886640613376 351654 318306 338544 -173064
832782886658824320 351339 317994 338555 -173035
832782886677035136 351007 317675 338552 -173145
832782886695246080 350753 317448 338563 -173114
832782886713456896 350631 317350 338538 -173145
832782886731667840 350670 317392 338500 -173156
832782886749878656 350904 317604 338535 -173095
832782886768089600 351022 317789 338530 -173097
832782886786300544 351161 317904 338537 -173097
832782886804511360 351214 317919 338517 -173127
832782886822722304 351222 317954 338515 -173080
832782886840933120 351378 318011 338523 -173022
832782886859144064 351504 318207 338595 -173099
832782886877354880 351696 318429 338543 -173103
832782886895565824 351880 318563 338520 -173089
832782886913776768 351860 318468 338547 -173061
832782886931987584 351494 318185 338500 -173120
832782886950198528 351191 317841 338552 -173113
832782886968409344 350878 317558 338526 -173136
832782886986620288 350738 317367 338488 -173115
832782887004831104 350744 317343 338527 -173112
832782887023042048 350837 317494 338533 -173128
832782887041252992 351027 317747 338495 -173070
832782887059463808 351184 317861 338531 -173069
832782887077674752 351136 317790 338445 -173124
832782887095885568 351206 317901 338471 -173100
832782887114096512 351297 318010 338482 -173064
832782887132307456 351382 318096 338544 -173123
832782887150518272 351603 318196 338492 -173102
832782887168729156 351804 318484 338538 -173076
832782887186940800 351843 318537 338543 -173035
832782887205152384 351707 318425 338558 -173119
832782887223364096 351540 318188 338612 -173073
832782887241575680 351085 317825 338508 -173116
832782887259787264 350910 317545 338627 -173019
832782887277998848 350707 317365 338557 -173079
832782887296210560 350761 317401 338605 -173065
832782887314422144 350896 317524 338571 -173072
832782887332633728 350983 317750 338544 -173078
832782887350845312 351083 317854 338513 -173096
832782887369057024 351217 317933 338535 -173029
832782887387268608 351276 317985 338586 -173109
832782887405480192 351295 318008 338527 -173098
832782887423691776 351427 318150 338545 -173039
832782887441903488 351675 318393 338529 -173133
832782887460115072 351805 318492 338529 -173126
832782887478326656 351777 318539 338483 -173079
832782887496538240 351737 318474 338530 -173127
832782887514749952 351359 318056 338524 -173067
832782887532961536 351022 317689 338544 -173054
832782887551173120 350796 317520 338557 -173021
832782887569384704 350677 317377 338572 -173092
832782887587596416 350739 317451 338573 -173078
832782887605808000 350908 317555 338541 -173103
832782887624019584 351031 317732 338515 -173080
832782887642231168 351146 317854 338488 -173069
832782887660442880 351209 317930 338512 -173079
832782887678654464 351277 318001 338531 -173028
832782887696866048 351445 318101 338572 -173136
832782887715077632 351499 318235 338568 -173053
832782887733289344 351662 318424 338505 -173094
832782887751500928 351902 318612 338559 -173058
832782887769712512 351830 318531 338583 -173064
832782887787924096 351600 318315 338582 -173024
832782887806135808 351214 317943 338526 -173106
832782887824347392 350945 317630 338566 -173024
832782887842558976 350732 317425 338562 -173069
832782887860770560 350722 317389 338555 -173048
832782887878982272 350801 317510 338512 -173104
832782887897193856 350972 317636 338516 -173078
832782887915405440 351110 317879 338603 -173064
832782887933617048 351182 317849 338543 -173022
832782887951828608 351157 317931 338535 -173055
832782887970040192 351263 318011 338560 -173043
832782887988251776 351347 318086 338559 -173012
832782888006463360 351749 318387 338560 -173039
832782888024674944 351875 318480 338544 -173073
832782888042886528 351887 318553 338497 -173033
832782888061098112 351799 318399 338522 -173068
832782888079309696 351516 318172 338541 -173052
832782888097521280 351149 317841 338552 -173063
832782888115732864 350845 317492 338533 -173111
832782888133944448 350694 317321 338502 -173055
832782888152156032 350665 317342 338552 -173052
832782888170367616 350876 317527 338560 -173026
832782888188579200 351078 317663 338597 -173013
832782888206790784 351198 317846 338608 -173028
832782888225002368 351197 317939 338500 -173087
832782888243213952 351191 317974 338557 -173073
832782888261425536 351300 317985 338544 -173095
832782888279636992 351454 318132 338554 -173092
832782888297848576 351634 318337 338616 -173093
832782888316060160 351869 318545 338614 -173046
832782888334271744 351835 318610 338566 -173081
832782888352483328 351690 318396 338551 -173036
832782888370694912 351358 318101 338525 -173096
832782888388906496 351116 317746 338603 -173027
832782888407118080 350822 317499 338584 -173026
832782888425329664 350762 317376 338554 -173037
832782888443541248 350765 317413 338544 -173085
832782888461752832 350881 317579 338559 -173079
832782888479964416 351081 317764 338542 -173074
832782888498176000 351182 317810 338545 -173082
832782888516387584 351365 318035 338576 -173037
832782888534599168 351256 317994 338578 -173044
832782888552810752 351361 318103 338566 -173034
832782888571022336 351502 318152 338514 -173098
832782888589233920 351735 318424 338584 -173073
832782888607445504 351884 318508 338580 -173061
832782888625657088 351781 318501 338568 -173091
832782888643868672 351600 318281 338580 -173063
832782888662080256 351255 317882 338554 -173094
832782888680291840 350963 317616 338564 -173095
832782888698503424 350801 317418 338550 -173102
832782888716713600 350757 317430 338580 -173069
832782888734923776 350791 317475 338516 -173071
832782888753133952 351028 317689 338547 -173022
832782888771344256 351144 317778 338542 -173069
832782888789554432 351161 317922 338549 -173088
832782888807764608 351199 317940 338524 -173126
832782888825974784 351316 317994 338564 -173075
832782888844184960 351443 318069 338542 -173046
832782888862395136 351552 318224 338552 -173090
832782888880605440 351729 318329 338542 -173106
832782888898815616 351819 318499 338575 -173092
832782888917025792 351760 318430 338586 -173047
832782888935235968 351490 318203 338520 -173030
832782888953446144 351203 317818 338509 -173132
832782888971656448 350860 317589 338494 -173136
832782888989866624 350691 317411 338491 -173081
832782889008076800 350678 317377 338486 -173063
832782889026286976 350794 317483 338503 -173040
832782889044497152 350986 317666 338529 -173075
832782889062707328 351146 317793 338554 -173086
832782889080917632 351243 317902 338580 -173045
832782889099127808 351238 317908 338593 -173021
832782889117337984 351306 317974 338515 -173078
832782889135548160 351442 318100 338566 -173104
832782889153758336 351626 318366 338603 -173047
832782889171968640 351790 318462 338564 -173099
832782889190178816 351881 318534 338567 -173055
832782889208388992 351713 318382 338512 -173112
832782889226599168 351408 318087 338551 -173107
832782889244809344 351052 317807 338546 -173097
832782889263019648 350848 317516 338543 -173098
832782889281229824 350703 317413 338565 -173098
832782889299440000 350744 317434 338537 -173100
832782889317650176 350931 317558 338568 -173074
832782889335860352 351063 317721 338517 -173063
832782889354070528 351206 317912 338573 -173045
832782889372280832 351256 317911 338619 -173089
832782889390491008 351313 318057 338647 -173037
832782889408701184 351343 318029 338565 -173089
832782889426911360 351542 318211 338568 -173008
832782889445121536 351679 318391 338533 -173058
832782889463331806 351872 318541 338557 -173091
832782889481543424 351860 318575 338617 -173034
832782889499755008 351644 318409 338610 -173050
832782889517966720 351261 318086 338569 -173043
832782889536178304 351080 317781 338568 -173051
832782889554389888 350810 317551 338615 -173011
832782889572601472 350739 317388 338566 -173098
832782889590813184 350785 317452 338600 -173079
832782889609024768 351034 317656 338576 -173056
832782889627236352 351175 317828 338603 -173025
832782889645447936 351276 317898 338586 -173072
832782889663659648 351204 317930 338577 -173086
832782889681871232 351244 317991 338531 -173127
832782889700082816 351354 318036 338488 -173088
832782889718294400 351566 318294 338492 -173053
832782889736506112 351750 318456 338522 -173041
832782889754717696 351856 318586 338591 -173014
832782889772929280 351783 318503 338542 -173034
832782889791140864 351533 318160 338530 -173055
832782889809352576 351180 317833 338508 -173031
832782889827564160 350899 317576 338543 -173094
832782889845775744 350739 317444 338564 -173055
832782889863987328 350732 317377 338548 -173065
832782889882199040 350863 317546 338520 -173062
832782889900410624 351007 317675 338561 -173061
832782889918622208 351165 317844 338569 -173001
832782889936833792 351218 317917 338549 -173027
832782889955045504 351201 317915 338489 -173050
832782889973257088 351270 318055 338562 -173047
832782889991468672 351547 318257 338562 -173033
832782890009680256 351695 318401 338544 -173041
832782890027891968 351825 318541 338568 -173045
832782890046103552 351852 318577 338557 -173067
832782890064315136 351714 318469 338516 -173026
832782890082526720 351392 318166 338590 -173025
832782890100738432 351057 317754 338482 -173043
832782890118950016 350810 317538 338540 -173055
832782890137161600 350753 317418 338528 -173020
832782890155373184 350696 317452 338533 -173086
832782890173584896 350883 317580 338546 -173037
832782890191796480 351049 317742 338559 -173054
832782890210008064 351170 317853 338545 -173061
832782890228219698 351131 317928 338498 -173099
832782890246431232 351265 317961 338538 -173058
832782890264642816 351359 318006 338542 -173121
832782890282854528 351461 318133 338559 -173107
832782890301066112 351700 318372 338548 -173082
832782890319277696 351871 318557 338584 -173055
832782890337489280 351824 318528 338566 -173044
832782890355700992 351625 318353 338540 -173072
832782890373912576 351299 317972 338495 -173079
832782890392124160 350954 317650 338510 -173138
832782890410335744 350723 317453 338546 -173108
832782890428547456 350728 317394 338502 -173065
832782890446759040 350777 317438 338525 -173138
832782890464970624 351012 317669 338532 -173062
832782890483182208 351148 317749 338538 -173065
832782890501393920 351363 318022 338574 -173026
832782890519605504 351321 317966 338591 -173053
832782890537817088 351318 318062 338589 -173045
832782890556028672 351363 318020 338524 -173111
832782890574240384 351560 318294 338538 -173099
832782890592451968 351736 318426 338465 -173141
832782890610663552 351824 318526 338515 -173138
832782890628875136 351824 318494 338594 -173097
832782890647086848 351534 318269 338523 -173086
832782890665298432 351205 317967 338581 -173052
832782890683510016 350938 317640 338590 -173081
832782890701721600 350728 317447 338596 -173111
832782890719933312 350688 317404 338502 -173072
832782890738144896 350854 317502 338548 -173052
832782890756356480 351054 317714 338507 -173063
832782890774568064 351170 317830 338571 -173026
832782890792779776 351248 317948 338596 -173104
832782890810991360 351275 318022 338551 -173054
832782890829202944 351310 317967 338525 -173158
832782890847414528 351459 318160 338572 -173080
832782890865626240 351651 318330 338558 -173060
832782890883837824 351814 318447 338560 -173103
832782890902049408 351864 318569 338567 -173073
832782890920260992 351723 318417 338543 -173111
832782890938472704 351438 318109 338543 -173074
832782890956684288 351098 317845 338527 -173080
832782890974895872 350875 317577 338599 -173002
832782890993107590 350711 317418 338554 -173063
832782891011319168 350780 317506 338577 -173027
832782891029530752 350900 317597 338529 -173115
832782891047742464 351024 317773 338620 -173092
832782891065954048 351137 317794 338491 -173062
832782891084165632 351244 317887 338538 -173020
832782891102377216 351295 317928 338542 -173092
832782891120588928 351356 317981 338572 -173041
832782891138800512 351460 318212 338590 -173097
832782891157012096 351685 318344 338583 -173071
832782891175223680 351837 318526 338585 -173115
832782891193435392 351880 318534 338544 -173091
832782891211646976 351723 318392 338589 -173063
832782891229858560 351421 318064 338543 -173059
832782891248070144 351029 317645 338512 -173070
832782891266281856 350815 317517 338493 -173082
832782891284493440 350751 317391 338573 -173098
832782891302705024 350790 317507 338571 -173058
832782891320916608 350971 317657 338506 -173059
832782891339128320 351092 317780 338534 -173108
832782891357339904 351263 317942 338562 -173097
832782891375551488 351268 317933 338598 -173076
832782891393763072 351304 317946 338510 -173100
832782891411974784 351425 318114 338557 -173085
832782891430186368 351566 318266 338564 -173088
832782891448397952 351777 318429 338527 -173110
832782891466609536 351865 318585 338560 -173111
832782891484821248 351850 318514 338575 -173025
832782891503032832 351616 318278 338535 -173076
832782891521244416 351377 318121 338551 -173064
832782891539456000 351016 317737 338566 -173071
832782891557667712 350799 317472 338568 -173040
832782891575879296 350753 317440 338550 -173069
832782891594090880 350875 317612 338579 -173069
832782891612302464 351054 317711 338584 -173063
832782891630514176 351154 317798 338566 -173052
832782891648725760 351259 317945 338577 -173088
832782891666937344 351311 318055 338605 -172994
832782891685148928 351336 318011 338565 -173070
832782891703360640 351472 318110 338562 -173050
832782891721572224 351641 318306 338577 -172994
832782891739783808 351811 318484 338544 -173063
832782891757995482 351914 318544 338506 -173097
832782891776207104 351799 318469 338561 -173071
832782891794418688 351507 318138 338548 -173065
832782891812630400 351170 317842 338564 -173133
832782891830841984 350910 317530 338542 -173129
832782891849053568 350748 317374 338572 -173103
832782891867265152 350740 317373 338538 -173111
832782891885476864 350873 317558 338547 -173111
832782891903688448 351066 317757 338606 -173041
832782891921900032 351156 317858 338575 -173059
832782891940111616 351217 317931 338539 -173070
832782891958323328 351248 317927 338516 -173031
832782891976534912 351345 318010 338566 -173072
832782891994746496 351465 318171 338565 -173099
832782892012958080 351658 318341 338588 -173052
832782892031169792 351832 318583 338590 -173070
832782892049381376 351873 318634 338573 -173041
832782892067592960 351702 318391 338567 -173090
832782892085804544 351375 318025 338522 -173105
832782892104016256 351072 317713 338502 -173022
832782892122227840 350866 317499 338574 -173058
832782892140439424 350748 317389 338569 -173028
832782892158651008 350785 317479 338600 -173047
832782892176862720 350928 317646 338548 -173052
832782892195074304 351049 317782 338547 -173088
832782892213285888 351129 317910 338563 -173042
832782892231497472 351296 317959 338556 -173054
832782892249709184 351295 317999 338563 -173069
832782892267920768 351386 318064 338603 -173040
832782892286132352 351544 318235 338574 -173069
832782892304343936 351719 318422 338612 -173094
832782892322555648 351970 318586 338619 -173025
832782892340767232 351854 318481 338538 -173094
832782892358978816 351612 318304 338494 -173129
832782892377190400 351284 317928 338486 -173082
832782892395402112 350997 317689 338603 -173090
832782892413613696 350798 317492 338579 -173043
832782892431825280 350766 317404 338506 -173097
832782892450036864 350843 317523 338551 -173110
832782892468248576 350994 317662 338550 -173073
832782892486460160 351134 317841 338606 -173069
832782892504671744 351249 317872 338567 -173021
832782892522883374 351297 317877 338547 -173050
832782892541095168 351344 318005 338535 -173067
832782892559307008 351451 318131 338631 -173092
832782892577518848 351562 318379 338626 -173137
832782892595730816 351808 318457 338597 -173071
832782892613942656 351888 318564 338619 -173090
832782892632154496 351737 318401 338562 -173077
832782892650366336 351450 318178 338521 -173114
832782892668578304 351155 317870 338568 -173128
832782892686790144 350847 317607 338561 -173065
832782892705001984 350781 317432 338550 -173030
832782892723213824 350737 317391 338532 -173116
832782892741425792 350869 317511 338481 -173116
832782892759637632 351131 317733 338544 -173108
832782892777849472 351169 317901 338543 -173164
832782892796061312 351227 317853 338500 -173113
832782892814273280 351220 317929 338481 -173115
832782892832485120 351283 318022 338552 -173073
832782892850696960 351438 318138 338592 -173047
832782892868908800 351664 318376 338588 -173041
832782892887120768 351865 318502 338559 -173071
832782892905332608 351882 318550 338551 -173074
832782892923544448 351649 318382 338547 -173080
832782892941756288 351379 318085 338577 -173100
832782892959968256 351051 317758 338588 -173027
832782892978180096 350827 317520 338625 -173057
832782892996391936 350867 317541 338609 -173042
832782893014603776 350813 317503 338602 -173080
832782893032815616 350932 317588 338531 -173064
832782893051027584 351157 317824 338557 -173052
832782893069239424 351250 317931 338537 -173102
832782893087451264 351252 318004 338591 -173061
832782893105663104 351300 317994 338590 -173075
832782893123875072 351402 318039 338561 -173061
832782893142086912 351568 318209 338560 -173055
832782893160298752 351753 318414 338562 -173047
832782893178510592 351920 318628 338565 -173062
832782893196722560 351851 318546 338591 -173078
832782893214934400 351594 318304 338547 -173103
832782893233146240 351335 318058 338571 -173071
832782893251358080 350968 317663 338486 -173079
832782893269570048 350736 317521 338567 -173095
832782893287781946 350716 317391 338550 -173089
832782893305991936 350740 317458 338517 -173078
832782893324201984 350947 317633 338443 -173076
832782893342412160 351092 317842 338521 -173037
832782893360622208 351229 317980 338605 -173102
832782893378832256 351272 317908 338483 -173071
832782893397042432 351307 317970 338505 -173062
832782893415252480 351404 318039 338523 -173094
832782893433462528 351606 318289 338508 -173113
832782893451672704 351782 318493 338531 -173095
832782893469882752 351900 318558 338550 -173094
832782893488092800 351853 318440 338556 -173073
832782893506302976 351666 318307 338498 -173090
832782893524513024 351257 317861 338494 -173053
832782893542723072 350898 317552 338515 -173088
832782893560933248 350745 317409 338509 -173089
832782893579143296 350703 317354 338490 -173103
832782893597353344 350879 317592 338559 -173104
832782893615563520 351049 317707 338529 -173107
832782893633773568 351197 317838 338565 -173057
832782893651983616 351294 317931 338577 -173079
832782893670193792 351205 317968 338515 -173110
832782893688403840 351336 318023 338588 -173075
832782893706613888 351496 318182 338569 -173033
832782893724824064 351654 318383 338582 -173041
832782893743034112 351803 318540 338527 -173089
832782893761244160 351892 318581 338569 -173041
832782893779454336 351701 318423 338574 -173041
832782893797664384 351428 318131 338564 -173078
832782893815874432 351082 317806 338532 -173111
832782893834084608 350849 317550 338581 -173030
832782893852294656 350746 317411 338599 -172982
832782893870504704 350761 317462 338598 -173040
832782893888714880 350952 317628 338605 -172993
832782893906924928 351097 317789 338568 -173107
832782893925134976 351244 317894 338532 -173065
832782893943345152 351200 317883 338507 -173112
832782893961555200 351282 317949 338610 -173097
832782893979765248 351348 318049 338593 -173106
832782893997975424 351585 318183 338590 -173089
832782894016185472 351852 318553 338592 -173075
832782894034395520 351983 318648 338543 -173038
832782894052605750 351912 318593 338549 -173033
832782894070817152 351655 318446 338580 -173007
832782894089028608 351424 318120 338596 -173069
832782894107240064 350993 317725 338617 -173030
832782894125451520 350813 317469 338567 -173088
832782894143662848 350713 317431 338591 -173056
832782894161874304 350847 317603 338564 -173031
832782894180085760 350987 317735 338562 -173035
832782894198297216 351170 317880 338589 -173089
832782894216508672 351226 317940 338552 -173055
832782894234720128 351295 318004 338510 -173045
832782894252931456 351335 318023 338579 -173031
832782894271142912 351432 318052 338522 -173054
832782894289354368 351585 318295 338559 -173064
832782894307565824 351852 318491 338582 -173108
832782894325777280 351840 318548 338490 -173136
832782894343988736 351829 318523 338591 -173098
832782894362200064 351527 318250 338571 -173119
832782894380411520 351215 317909 338603 -173018
832782894398622976 350950 317605 338617 -173061
832782894416834432 350795 317449 338596 -173059
832782894435045888 350775 317516 338580 -173062
832782894453257344 350898 317537 338578 -173107
832782894471468672 351050 317789 338578 -173070
832782894489680128 351189 317905 338576 -173090
832782894507891584 351272 317951 338532 -173051
832782894526103040 351302 318033 338593 -173030
832782894544314496 351291 318058 338574 -173093
832782894562525952 351514 318189 338609 -173031
832782894580737280 351664 318295 338552 -173006
832782894598948736 351818 318565 338593 -173006
832782894617160192 351914 318596 338573 -173019
832782894635371648 351758 318476 338581 -173069
832782894653583104 351476 318236 338561 -173051
832782894671794560 351146 317838 338589 -173092
832782894690005888 350847 317568 338520 -173071
832782894708217344 350757 317411 338551 -173053
832782894726428800 350800 317529 338620 -173091
832782894744640256 350953 317629 338609 -173067
832782894762851712 351116 317762 338588 -173064
832782894781063168 351185 317829 338589 -173097
832782894799274496 351212 317915 338556 -173064
832782894817486014 351269 318047 338586 -173078
832782894835698304 351359 318063 338499 -173097
832782894853910656 351507 318199 338552 -173121
832782894872122880 351697 318386 338573 -173106
832782894890335232 351903 318576 338595 -173038
832782894908547584 351882 318541 338548 -173089
832782894926759808 351727 318387 338568 -173018
832782894944972160 351385 318077 338609 -173035
832782894963184512 351089 317749 338600 -173020
832782894981396736 350813 317534 338514 -173042
832782894999609088 350795 317418 338592 -173026
832782895017821312 350782 317507 338548 -173033
832782895036033664 350941 317649 338532 -173029
832782895054246016 351120 317809 338582 -173068
832782895072458240 351255 317936 338603 -173031
832782895090670592 351308 317944 338590 -173047
832782895108882944 351376 318001 338629 -173054
832782895127095168 351468 318059 338563 -173069
832782895145307520 351621 318249 338574 -173054
832782895163519872 351854 318458 338616 -173013
832782895181732096 351940 318610 338538 -173041
832782895199944448 351852 318522 338581 -173075
832782895218156800 351589 318274 338579 -173137
832782895236369024 351307 318041 338660 -173080
832782895254581376 350978 317682 338606 -173072
832782895272793728 350721 317411 338577 -173082
832782895291005952 350756 317427 338603 -173035
832782895309218304 350875 317539 338547 -173059
832782895327430528 351010 317747 338577 -173043
832782895345642880 351178 317871 338596 -173034
832782895363855232 351217 317932 338542 -173098
832782895382067456 351312 318017 338533 -173052
832782895400279808 351301 317956 338557 -173054
832782895418492160 351423 318079 338554 -173094
832782895436704384 351688 318381 338563 -173067
832782895454916736 351883 318535 338592 -173037
832782895473129088 351939 318639 338574 -173030
832782895491341312 351910 318646 338613 -173081
832782895509553664 351567 318255 338605 -173026
832782895527766016 351198 317872 338608 -173060
832782895545978240 350881 317612 338596 -173067
832782895564190592 350787 317475 338596 -173042
832782895582402900 350783 317474 338577 -173074
832782895600614656 350981 317602 338557 -173086
832782895618826368 351083 317798 338562 -173110
832782895637037952 351200 317914 338596 -173060
832782895655249664 351287 317997 338609 -173087
832782895673461248 351343 318019 338542 -173075
832782895691672960 351353 318022 338578 -173080
832782895709884544 351631 318271 338631 -173041
832782895728096256 351720 318464 338594 -173061
832782895746307840 351936 318564 338573 -173013
832782895764519552 351922 318524 338573 -173041
832782895782731136 351755 318397 338551 -173093
832782895800942848 351431 318135 338626 -173085
832782895819154432 351087 317793 338542 -173094
832782895837366144 350812 317478 338589 -173132
832782895855577856 350693 317453 338589 -173141
832782895873789440 350797 317506 338528 -173132
832782895892001152 350997 317705 338581 -173039
832782895910212736 351138 317898 338593 -173103
832782895928424448 351259 317911 338597 -173068
832782895946636032 351290 318010 338559 -173040
832782895964847744 351306 317952 338532 -173058
832782895983059328 351391 318081 338514 -173070
832782896001271040 351645 318426 338523 -173079
832782896019482624 351813 318541 338563 -173116
832782896037694336 351900 318609 338547 -173081
832782896055905920 351857 318529 338547 -173128
832782896074117632 351603 318243 338492 -173107
832782896092329344 351319 318020 338568 -173041
832782896110540928 350969 317710 338557 -173087
832782896128752640 350865 317456 338561 -173029
832782896146964224 350780 317436 338612 -173055
832782896165175936 350887 317559 338593 -173058
832782896183387520 351027 317744 338494 -173057
832782896201599232 351208 317876 338549 -172992
832782896219810816 351241 317976 338543 -173082
832782896238022528 351352 318027 338574 -173077
832782896256234112 351337 318068 338576 -173116
832782896274445824 351485 318226 338592 -173100
832782896292657408 351682 318346 338591 -173088
832782896310869120 351866 318568 338579 -173091
832782896329080832 351901 318612 338573 -173058
832782896347292326 351717 318451 338572 -173114
832782896365503744 351476 318169 338537 -173104
832782896383715200 351141 317877 338512 -173031
832782896401926784 350885 317558 338513 -173027
832782896420138240 350705 317401 338532 -173065
832782896438349824 350789 317435 338639 -172976
832782896456561280 350939 317587 338581 -173040
832782896474772736 351043 317798 338649 -173068
832782896492984320 351224 317880 338567 -173063
832782896511195776 351269 317860 338542 -173087
832782896529407360 351279 317953 338548 -173067
832782896547618816 351375 318085 338575 -173108
832782896565830272 351507 318194 338547 -173100
832782896584041856 351649 318345 338584 -173090
832782896602253312 351858 318517 338532 -173087
832782896620464896 351871 318581 338479 -173062
832782896638676352 351694 318381 338479 -173082
832782896656887808 351375 318039 338569 -173096
832782896675099392 351071 317742 338500 -173096
832782896693310848 350812 317545 338548 -173073
832782896711522432 350728 317348 338458 -173138
832782896729733888 350848 317449 338550 -173064
832782896747945344 350987 317616 338543 -173081
832782896766156928 351086 317813 338483 -173100
832782896784368384 351195 317886 338516 -173057
832782896802579968 351263 317970 338595 -173039
832782896820791424 351262 317999 338586 -173160
832782896839002880 351348 318118 338537 -173123
832782896857214464 351569 318300 338548 -173097
832782896875425920 351781 318515 338531 -173081
832782896893637504 351922 318583 338635 -173040
832782896911848960 351846 318602 338560 -173085
832782896930060416 351643 318339 338548 -173087
832782896948272000 351314 318085 338582 -173094
832782896966483456 351050 317725 338616 -173020
832782896984695040 350774 317519 338615 -173044
832782897002906496 350713 317472 338561 -173061
832782897021117952 350859 317565 338579 -173077
832782897039329536 351020 317657 338577 -173081
832782897057540992 351146 317848 338547 -173129
832782897075752576 351338 317966 338601 -173035
832782897093964032 351314 317965 338620 -173062
832782897112175640 351387 318039 338578 -173051
832782897130386560 351471 318148 338567 -173007
832782897148597504 351649 318349 338613 -173060
832782897166808576 351849 318498 338597 -173017
832782897185019520 351962 318591 338603 -173067
832782897203230592 351900 318554 338633 -173003
832782897221441536 351580 318218 338580 -172997
832782897239652608 351233 317883 338591 -173057
832782897257863552 350941 317567 338530 -173087
832782897276074496 350766 317470 338542 -173096
832782897294285568 350760 317479 338597 -173075
832782897312496512 350898 317540 338537 -173076
832782897330707584 351098 317636 338521 -173112
832782897348918528 351253 317942 338586 -173123
832782897367129600 351292 317898 338539 -173108
832782897385340544 351302 318005 338541 -173077
832782897403551488 351329 317978 338530 -173055
832782897421762560 351461 318190 338559 -173060
832782897439973504 351697 318337 338583 -173076
832782897458184576 351872 318562 338546 -173093
832782897476395520 351858 318549 338530 -173108
832782897494606592 351755 318432 338548 -173073
832782897512817536 351439 318161 338583 -173111
832782897531028480 351086 317802 338562 -173070
832782897549239552 350819 317540 338578 -173077
832782897567450496 350712 317405 338552 -173129
832782897585661568 350818 317473 338500 -173018
832782897603872512 350978 317672 338546 -173034
832782897622083584 351199 317792 338590 -173016
832782897640294528 351268 317944 338534 -173079
832782897658505472 351345 318080 338578 -173059
832782897676716544 351294 318075 338563 -173077
832782897694927488 351424 318153 338540 -173039
832782897713138560 351600 318276 338572 -173041
832782897731349504 351730 318378 338552 -173073
832782897749560576 351858 318522 338586 -173108
832782897767771520 351864 318509 338599 -173042
832782897785982464 351617 318295 338603 -173081
832782897804193536 351324 318006 338599 -173072
832782897822404480 350928 317606 338543 -173106
832782897840615552 350789 317478 338578 -173044
832782897858826496 350703 317382 338565 -173058
832782897877037592 350800 317465 338592 -173053
832782897895249152 350979 317663 338588 -173051
832782897913460736 351172 317812 338552 -173062
832782897931672448 351223 317848 338526 -173053
832782897949884032 351270 317933 338590 -173047
832782897968095616 351317 317961 338547 -173070
832782897986307200 351514 318259 338555 -173056
832782898004518912 351668 318340 338654 -173077
832782898022730496 351848 318455 338609 -173088
832782898040942080 351907 318604 338624 -173064
832782898059153664 351835 318474 338579 -173085
832782898077365376 351533 318257 338656 -173031
832782898095576960 351177 317834 338600 -173039
832782898113788544 350869 317597 338593 -173051
832782898132000128 350677 317445 338571 -173043
832782898150211840 350717 317386 338591 -173068
832782898168423424 350856 317519 338557 -173035
832782898186635008 351057 317717 338618 -173028
832782898204846592 351087 317816 338581 -173100
832782898223058304 351219 317897 338618 -173040
832782898241269888 351283 317894 338605 -173022
832782898259481472 351273 318024 338555 -173036
832782898277693056 351453 318147 338577 -173067
832782898295904768 351726 318384 338626 -173063
832782898314116352 351869 318547 338552 -173067
832782898332327936 351893 318588 338596 -173064
832782898350539520 351775 318441 338569 -173077
832782898368751232 351504 318120 338571 -173081
832782898386962816 351092 317747 338559 -173145
832782898405174400 350817 317502 338565 -173091
832782898423385984 350655 317339 338520 -173116
832782898441597696 350750 317442 338574 -173082
832782898459809280 350924 317550 338560 -173115
832782898478020864 351115 317784 338558 -173056
832782898496232448 351173 317859 338568 -173089
832782898514444160 351166 317929 338563 -173060
832782898532655744 351259 317916 338546 -173038
832782898550867328 351399 318094 338627 -173012
832782898569078912 351505 318208 338556 -173086
832782898587290624 351706 318440 338583 -173055
832782898605502208 351782 318556 338630 -173120
832782898623713792 351775 318535 338575 -173105
832782898641925484 351595 318400 338560 -173107
832782898660136704 351324 318087 338583 -172991
832782898678347904 350983 317729 338598 -173063
832782898696559104 350801 317520 338577 -173040
832782898714770304 350693 317387 338547 -173081
832782898732981632 350835 317516 338488 -173030
832782898751192832 350928 317677 338533 -173100
832782898769404032 351176 317860 338616 -173053
832782898787615232 351229 317842 338606 -173055
832782898805826432 351262 317969 338628 -173068
832782898824037632 351321 317963 338591 -173067
832782898842248832 351420 318114 338600 -173051
832782898860460032 351589 318296 338613 -173060
832782898878671360 351787 318462 338653 -173106
832782898896882560 351907 318605 338650 -173104
832782898915093760 351839 318525 338605 -173064
832782898933304960 351616 318224 338567 -173067
832782898951516160 351194 317911 338564 -173109
832782898969727360 350937 317594 338555 -173078
832782898987938560 350763 317445 338533 -173105
832782899006149888 350713 317401 338561 -173055
832782899024361088 350840 317473 338562 -173057
832782899042572288 351019 317645 338633 -173021
832782899060783488 351197 317825 338530 -173124
832782899078994688 351259 317960 338578 -173063
832782899097205888 351268 318046 338622 -173022
832782899115417088 351357 317967 338580 -173089
832782899133628288 351457 318090 338605 -173077
832782899151839616 351576 318294 338517 -173121
832782899170050816 351755 318405 338498 -173131
832782899188262016 351876 318557 338520 -173130
832782899206473216 351767 318472 338578 -173102
832782899224684416 351499 318119 338584 -173037
832782899242895616 351144 317793 338632 -173047
832782899261106816 350865 317557 338598 -173105
832782899279318016 350659 317399 338541 -173086
832782899297529344 350755 317470 338535 -173058
832782899315740544 350922 317584 338591 -173100
832782899333951744 351064 317722 338556 -173091
832782899352162944 351207 317855 338533 -173132
832782899370374144 351256 317946 338619 -173042
832782899388585344 351356 317984 338566 -173088
832782899406796592 351353 318017 338526 -173070
832782899425008896 351491 318239 338620 -173038
832782899443221248 351706 318409 338622 -173048
832782899461433728 351866 318568 338647 -173031
832782899479646080 351857 318612 338586 -173051
832782899497858560 351678 318367 338560 -173050
832782899516070912 351355 317990 338588 -173103
832782899534283392 351064 317709 338626 -173016
832782899552495744 350783 317467 338590 -173065
832782899570708224 350730 317415 338555 -173081
832782899588920576 350807 317461 338562 -173041
832782899607133056 350956 317608 338530 -173112
832782899625345408 351101 317761 338535 -173068
832782899643557888 351222 317881 338511 -173097
832782899661770240 351233 317964 338565 -173040
832782899679982720 351198 317957 338494 -173078
832782899698195072 351310 318005 338511 -173141
832782899716407552 351552 318201 338543 -173089
832782899734619904 351704 318442 338563 -173150
832782899752832384 351883 318568 338555 -173075
832782899771044736 351828 318542 338575 -173060
832782899789257216 351590 318267 338598 -173062
832782899807469568 351276 317904 338611 -173106
832782899825682048 350894 317690 338622 -173113
832782899843894400 350755 317417 338574 -173107
832782899862106880 350720 317472 338634 -173097
832782899880319232 350862 317513 338557 -173077
832782899898531712 351037 317667 338547 -173072
832782899916744064 351086 317792 338538 -173165
832782899934956544 351245 317982 338634 -173138
832782899953168896 351270 317955 338582 -173122
832782899971381376 351289 317959 338560 -173139
832782899989593728 351405 318106 338578 -173081
832782900007806208 351610 318273 338608 -173019
832782900026018560 351847 318510 338581 -173050
832782900044231040 351874 318540 338555 -173047
832782900062443392 351735 318446 338558 -173106
832782900080655872 351403 318160 338542 -173155
832782900098868224 351133 317848 338610 -173075
832782900117080704 350910 317571 338573 -173089
832782900135293056 350774 317456 338652 -173091
832782900153505536 350829 317449 338556 -173080
832782900171718054 350888 317526 338579 -173121
832782900189930368 351093 317729 338576 -173061
832782900208142720 351225 317899 338562 -173071
832782900226355200 351258 317938 338490 -173060
832782900244567552 351308 317998 338566 -173058
832782900262780032 351355 318056 338565 -173077
832782900280992384 351515 318227 338567 -173040
832782900299204864 351733 318403 338561 -173028
832782900317417216 351916 318544 338571 -173012
832782900335629696 351883 318541 338525 -173030
832782900353842048 351696 318423 338556 -173013
832782900372054528 351357 318014 338577 -173028
832782900390266880 351054 317740 338622 -172994
832782900408479360 350799 317481 338588 -173082
832782900426691712 350753 317391 338563 -173057
832782900444904192 350785 317519 338548 -173016
832782900463116544 350950 317591 338599 -173046
832782900481329024 351140 317817 338637 -173036
832782900499541376 351243 317974 338588 -173046
832782900517753856 351285 317903 338624 -172984
832782900535966208 351271 317935 338607 -173097
832782900554178688 351405 318066 338612 -173068
832782900572391040 351512 318255 338543 -173094
832782900590603520 351807 318469 338593 -173047
832782900608815872 351929 318595 338597 -173067
832782900627028352 351854 318531 338596 -173099
832782900645240704 351641 318329 338609 -173096
832782900663453184 351301 317959 338588 -173029
832782900681665536 350983 317608 338550 -173071
832782900699878016 350775 317435 338589 -173053
832782900718090368 350730 317418 338561 -173073
832782900736302848 350831 317507 338568 -173096
832782900754515200 351050 317677 338616 -173075
832782900772727680 351143 317821 338558 -173058
832782900790940032 351279 317920 338564 -173092
832782900809152512 351285 317997 338550 -173082
832782900827364864 351307 317986 338577 -173069
832782900845577344 351398 318068 338522 -173129
832782900863789696 351662 318279 338574 -173044
832782900882002176 351828 318497 338585 -173037
832782900900214528 351875 318566 338515 -173093
832782900918427008 351771 318474 338552 -173035
832782900936639516 351457 318155 338576 -173072
832782900954851328 351166 317824 338541 -173065
832782900973063168 350857 317547 338509 -173079
832782900991275008 350749 317450 338577 -173051
832782901009486976 350694 317391 338527 -173099
832782901027698816 350882 317546 338555 -173042
832782901045910656 350982 317740 338556 -173065
832782901064122496 351139 317891 338652 -173013
832782901082334464 351208 317931 338660 -173046
832782901100546304 351266 317943 338628 -173070
832782901118758144 351341 318017 338611 -173047
832782901136969984 351551 318187 338605 -173059
832782901155181952 351702 318353 338576 -173040
832782901173393792 351843 318581 338596 -173080
832782901191605632 351862 318610 338612 -173057
832782901209817472 351726 318468 338644 -173022
832782901228029440 351333 318055 338590 -173127
832782901246241280 351110 317795 338580 -173080
832782901264453120 350835 317496 338529 -173081
832782901282664960 350740 317499 338588 -173096
832782901300876928 350824 317478 338566 -173094
832782901319088768 350932 317641 338575 -173048
832782901337300608 351105 317755 338552 -173072
832782901355512448 351192 317894 338565 -173079
832782901373724416 351287 317963 338620 -173020
832782901391936256 351295 318013 338568 -173040
832782901410148096 351415 318101 338583 -173051
832782901428359936 351578 318195 338555 -173121
832782901446571776 351718 318432 338566 -173076
832782901464783744 351838 318575 338563 -173070
832782901482995584 351833 318577 338550 -173081
832782901501207424 351576 318238 338573 -173071
832782901519419264 351294 317983 338556 -173122
832782901537631232 350927 317629 338614 -173060
832782901555843072 350743 317419 338603 -173057
832782901574054912 350688 317389 338585 -173085
832782901592266752 350812 317505 338560 -173067
832782901610478720 351036 317624 338555 -173102
832782901628690560 351155 317789 338580 -173062
832782901646902400 351221 317886 338562 -173073
832782901665114240 351339 317968 338613 -173007
832782901683326208 351355 318040 338557 -173046
832782901701538088 351568 318149 338592 -173006
832782901719750400 351677 318321 338562 -173050
832782901737962752 351828 318545 338612 -173061
832782901756175104 351917 318635 338564 -173036
832782901774387456 351818 318493 338546 -173042
832782901792599808 351493 318181 338560 -173037
832782901810812160 351190 317943 338649 -173072
832782901829024512 350901 317608 338577 -173036
832782901847236864 350772 317455 338605 -173076
832782901865449088 350759 317478 338601 -173046
832782901883661440 350875 317601 338624 -173074
832782901901873792 351038 317776 338622 -173033
832782901920086144 351140 317772 338564 -173051
832782901938298496 351265 317870 338529 -173107
832782901956510848 351293 317900 338592 -173035
832782901974723200 351361 318039 338629 -173035
832782901992935552 351493 318133 338550 -173087
832782902011147904 351621 318338 338606 -173054
832782902029360256 351873 318571 338586 -173037
832782902047572608 351886 318560 338576 -173067
832782902065784960 351692 318443 338534 -173097
832782902083997312 351397 318151 338548 -173051
832782902102209664 351113 317790 338547 -173080
832782902120421888 350880 317482 338559 -173053
832782902138634240 350747 317489 338593 -172999
832782902156846592 350781 317522 338597 -173095
832782902175058944 350968 317641 338598 -173030
832782902193271296 351069 317802 338522 -173004
832782902211483648 351248 317947 338595 -172993
832782902229696000 351306 318027 338608 -173011
832782902247908352 351362 318038 338628 -173027
832782902266120704 351379 318070 338588 -173043
832782902284333056 351525 318226 338613 -173055
832782902302545408 351694 318342 338540 -173069
832782902320757760 351943 318548 338592 -173050
832782902338970112 351863 318479 338506 -173096
832782902357182464 351686 318333 338565 -173069
832782902375394688 351351 318022 338567 -173044
832782902393607040 351013 317680 338596 -173095
832782902411819392 350834 317481 338574 -173103
832782902430031744 350795 317458 338600 -173043
832782902448244096 350794 317552 338574 -173073
832782902466456498 350924 317665 338547 -173081
832782902484668800 351098 317811 338516 -173081
832782902502881152 351223 317902 338567 -173076
832782902521093504 351272 317963 338606 -173038
832782902539305856 351420 318143 338611 -173007
832782902557518208 351495 318101 338597 -173098
832782902575730560 351603 318336 338573 -173064
832782902593942912 351770 318451 338564 -173069
832782902612155264 351917 318531 338609 -173076
832782902630367488 351806 318535 338567 -173025
832782902648579840 351625 318278 338633 -172988
832782902666792192 351248 317933 338583 -172996
832782902685004544 350975 317622 338601 -173016
832782902703216896 350792 317414 338609 -173073
832782902721429248 350703 317448 338597 -173095
832782902739641600 350826 317534 338552 -173082
832782902757853952 351028 317701 338641 -173070
832782902776066304 351164 317883 338608 -173034
832782902794278656 351253 317903 338571 -173043
832782902812491008 351285 317945 338591 -173050
832782902830703360 351354 318027 338583 -173097
832782902848915712 351518 318161 338609 -173025
832782902867128064 351688 318367 338614 -173073
832782902885340288 351818 318522 338600 -173064
832782902903552640 351904 318575 338599 -173074
832782902921764992 351735 318408 338585 -173075
832782902939977344 351450 318150 338610 -173069
832782902958189696 351166 317829 338593 -173021
832782902976402048 350849 317594 338551 -173030
832782902994614400 350723 317418 338558 -173060
832782903012826752 350765 317365 338489 -173093
832782903031039104 350860 317604 338494 -173103
832782903049251456 351113 317889 338546 -173075
832782903067463808 351232 317862 338544 -173071
832782903085676160 351253 317960 338566 -173082
832782903103888512 351288 318023 338583 -173056
832782903122100864 351328 318090 338568 -173057
832782903140313088 351501 318245 338607 -173043
832782903158525440 351699 318425 338620 -173046
832782903176737792 351912 318540 338679 -173054
832782903194950144 351840 318527 338617 -173052
832782903213162496 351672 318344 338614 -173050
832782903231374908 351328 317978 338533 -173045
832782903249587200 350971 317605 338517 -173095
832782903267799552 350705 317354 338539 -173104
832782903286011776 350753 317381 338598 -173062
832782903304224128 350818 317510 338537 -173082
832782903322436480 350964 317591 338578 -173149
832782903340648704 351109 317755 338530 -173109
832782903358861056 351308 317922 338572 -173091
832782903377073408 351303 317897 338566 -173103
832782903395285632 351268 318002 338581 -173114
832782903413497984 351447 318084 338611 -173051
832782903431710208 351591 318259 338569 -173038
832782903449922560 351796 318425 338590 -173068
832782903468134912 351905 318604 338624 -173063
832782903486347136 351784 318500 338607 -173068
832782903504559488 351593 318254 338635 -173069
832782903522771840 351231 317921 338611 -173069
832782903540984064 350896 317616 338618 -173056
832782903559196416 350744 317431 338598 -173106
832782903577408768 350760 317418 338567 -173080
832782903595620992 350793 317541 338595 -173068
832782903613833344 351072 317744 338642 -173039
832782903632045696 351182 317905 338623 -173040
832782903650257920 351239 317952 338660 -173076
832782903668470272 351287 317971 338682 -173062
832782903686682624 351316 318014 338627 -173098
832782903704894848 351457 318153 338663 -173054
832782903723107200 351602 318302 338618 -173076
832782903741319552 351868 318600 338635 -173089
832782903759531776 351841 318591 338595 -173111
832782903777744128 351729 318406 338551 -173121
832782903795956352 351465 318174 338581 -173125
832782903814168704 351167 317878 338630 -173057
832782903832381056 350967 317572 338649 -172963
832782903850593280 350767 317430 338538 -173088
832782903868805632 350834 317420 338543 -173091
832782903887017984 350931 317620 338608 -173042
832782903905230208 351112 317738 338539 -173075
832782903923442560 351201 317860 338581 -173036
832782903941654912 351263 317882 338555 -173071
832782903959867136 351296 317956 338580 -173053
832782903978079488 351374 318054 338565 -173017
832782903996291802 351538 318212 338603 -172987
832782904014503552 351719 318366 338597 -173044
832782904032715264 351859 318582 338643 -173021
832782904050926848 351924 318579 338640 -173038
832782904069138560 351681 318396 338665 -172997
832782904087350144 351352 318010 338650 -173079
832782904105561856 350992 317661 338608 -173072
832782904123773440 350773 317413 338617 -173086
832782904141985152 350697 317388 338583 -173085
832782904160196736 350796 317447 338601 -173110
832782904178408448 350992 317592 338567 -173114
832782904196620032 351133 317817 338513 -173111
832782904214831744 351205 317825 338572 -173102
832782904233043328 351226 317922 338562 -173092
832782904251255040 351308 317999 338569 -173020
832782904269466752 351394 318076 338537 -173116
832782904287678336 351570 318240 338558 -173069
832782904305890048 351749 318471 338569 -173058
832782904324101632 351904 318557 338550 -173102
832782904342313344 351873 318553 338584 -172996
832782904360524928 351578 318276 338590 -173070
832782904378736640 351268 317937 338598 -173108
832782904396948224 350952 317649 338617 -173137
832782904415159936 350775 317462 338622 -173137
832782904433371520 350720 317414 338584 -173064
832782904451583232 350841 317538 338565 -173037
832782904469794816 351057 317691 338650 -173010
832782904488006528 351125 317830 338576 -173093
832782904506218240 351244 317947 338550 -173067
832782904524429824 351425 318136 338596 -173052
832782904542641536 351386 318108 338632 -173080
832782904560853120 351476 318153 338590 -173075
832782904579064832 351631 318315 338557 -173075
832782904597276416 351819 318558 338563 -173081
832782904615488128 351914 318620 338565 -173075
832782904633699712 351794 318441 338543 -173087
832782904651911424 351463 318195 338608 -173087
832782904670123008 351199 317955 338679 -173059
832782904688334720 350879 317599 338639 -173059
832782904706546304 350782 317472 338633 -173074
832782904724758016 350789 317439 338616 -173089
832782904742969728 350912 317595 338609 -173068
832782904761181220 351100 317737 338627 -173033
832782904779393536 351215 317846 338611 -173010
832782904797605888 351243 317876 338573 -173074
832782904815818240 351279 317967 338595 -173073
832782904834030592 351361 318057 338567 -173058
832782904852242944 351500 318251 338567 -173043
832782904870455296 351720 318350 338551 -173003
832782904888667648 351832 318497 338537 -173063
832782904906880000 351883 318579 338561 -173068
832782904925092224 351739 318428 338588 -173026
832782904943304576 351419 318096 338585 -173065
832782904961516928 351119 317783 338637 -173052
832782904979729280 350839 317535 338626 -173088
832782904997941632 350721 317388 338555 -173100
832782905016153984 350836 317453 338593 -173044
832782905034366336 350948 317601 338593 -173081
832782905052578688 351149 317844 338619 -173034
832782905070791040 351280 317935 338641 -172991
832782905089003392 351275 317977 338628 -173016
832782905107215744 351293 318004 338609 -173007
832782905125428096 351370 318036 338589 -173072
832782905143640448 351509 318176 338488 -173063
832782905161852800 351763 318463 338656 -173087
832782905180065024 351881 318591 338623 -173014
832782905198277376 351805 318533 338575 -173074
832782905216489728 351584 318321 338616 -173058
832782905234702080 351223 317993 338559 -173089
832782905252914432 350952 317663 338598 -173092
832782905271126784 350851 317516 338564 -173025
832782905289339136 350764 317484 338563 -173106
832782905307551488 350835 317556 338602 -173139
832782905325763840 351007 317738 338561 -173097
832782905343976192 351155 317851 338557 -173067
832782905362188544 351234 317901 338561 -173074
832782905380400896 351284 317955 338542 -173035
832782905398613248 351295 317970 338542 -173078
832782905416825600 351434 318119 338577 -173043
832782905435037824 351586 318296 338628 -173054
832782905453250176 351815 318478 338639 -173048
832782905471462528 351900 318543 338609 -173073
832782905489674880 351738 318477 338616 -173106
832782905507887232 351478 318208 338618 -173057
832782905526099630 351167 317853 338608 -173096
832782905544311168 350899 317552 338586 -173079
832782905562522752 350655 317432 338533 -173094
832782905580734464 350810 317481 338601 -173024
832782905598946048 350881 317561 338593 -173072
832782905617157632 351062 317810 338562 -173044
832782905635369216 351197 317861 338585 -173074
832782905653580928 351260 317984 338628 -173057
832782905671792512 351276 318025 338571 -173114
832782905690004096 351415 318098 338608 -173045
832782905708215680 351494 318210 338569 -173076
832782905726427392 351698 318396 338637 -173033
832782905744638976 351873 318535 338612 -173038
832782905762850560 351857 318625 338614 -173073
832782905781062144 351724 318465 338620 -173036
832782905799273856 351466 318137 338589 -173052
832782905817485440 351079 317817 338660 -173044
832782905835697024 350860 317539 338614 -173038
832782905853908608 350755 317388 338609 -173059
832782905872120320 350824 317486 338583 -173053
832782905890331904 350953 317650 338610 -173044
832782905908543488 351102 317826 338593 -173045
832782905926755072 351204 317923 338586 -173002
832782905944966784 351295 317991 338623 -173034
832782905963178368 351326 318002 338600 -173067
832782905981389952 351427 318080 338578 -173012
832782905999601536 351527 318233 338588 -173112
832782906017813248 351739 318440 338581 -173111
832782906036024832 351833 318580 338575 -173110
832782906054236416 351809 318580 338591 -173070
832782906072448000 351581 318306 338595 -173095
832782906090659712 351317 317981 338617 -173054
832782906108871296 350975 317680 338590 -173041
832782906127082880 350870 317503 338661 -173073
832782906145294464 350728 317411 338608 -173061
832782906163506176 350832 317486 338624 -173055
832782906181717760 350970 317667 338599 -173085
832782906199929344 351109 317893 338639 -173076
832782906218140928 351260 317939 338610 -172993
832782906236352640 351232 318012 338595 -173053
832782906254564224 351366 318039 338640 -172991
832782906272775808 351464 318122 338582 -173044
832782906290987522 351627 318298 338632 -173007
832782906309198080 351824 318505 338669 -173024
832782906327408640 351889 318619 338573 -173051
832782906345619200 351856 318501 338582 -173010
832782906363829760 351527 318267 338562 -173069
832782906382040320 351248 317980 338592 -173012
832782906400250880 350970 317648 338532 -172989
832782906418461440 350716 317438 338538 -173068
832782906436672000 350774 317473 338581 -173034
832782906454882560 350911 317608 338619 -173038
832782906473093120 351000 317743 338607 -173071
832782906491303680 351250 317880 338576 -173076
832782906509514240 351375 318049 338551 -173057
832782906527724800 351394 318046 338599 -173038
832782906545935360 351380 318075 338584 -173063
832782906564145920 351461 318236 338597 -173128
832782906582356480 351661 318370 338615 -173092
832782906600567040 351857 318558 338608 -173090
832782906618777600 351892 318566 338579 -173105
832782906636988160 351756 318405 338615 -173111
832782906655198720 351454 318173 338609 -173087
832782906673409280 351017 317789 338582 -173094
832782906691619840 350814 317580 338531 -173048
832782906709830400 350742 317428 338599 -173033
832782906728041088 350756 317414 338538 -173074
832782906746251648 350968 317625 338606 -173043
832782906764462208 351106 317764 338548 -173061
832782906782672768 351225 317828 338566 -173051
832782906800883328 351257 317926 338599 -173044
832782906819093888 351290 317993 338596 -173038
832782906837304448 351370 318037 338552 -173022
832782906855515008 351504 318230 338571 -173088
832782906873725568 351754 318384 338585 -173030
832782906891936128 351911 318577 338606 -173079
832782906910146688 351892 318563 338644 -173088
832782906928357248 351632 318374 338583 -173059
832782906946567808 351276 318011 338576 -173076
832782906964778368 351026 317715 338642 -173038
832782906982988928 350800 317490 338598 -173031
832782907001199488 350742 317423 338607 -173074
832782907019410048 350900 317598 338573 -173094
832782907037620608 351015 317748 338600 -173097
832782907055831162 351120 317911 338558 -173050
832782907074042368 351181 317920 338537 -173136
832782907092253568 351261 317984 338574 -173077
832782907110464768 351344 318003 338544 -173039
832782907128675968 351475 318072 338581 -173055
832782907146887296 351602 318246 338565 -173068
832782907165098496 351753 318500 338606 -173034
832782907183309696 351915 318568 338592 -173030
832782907201520896 351783 318531 338617 -173034
832782907219732096 351543 318238 338625 -173096
832782907237943296 351148 317883 338588 -173090
832782907256154496 350882 317601 338554 -173131
832782907274365696 350750 317432 338596 -173065
832782907292577024 350758 317447 338635 -173074
832782907310788224 350853 317493 338640 -173067
832782907328999424 351020 317714 338544 -173095
832782907347210624 351191 317824 338605 -173037
832782907365421824 351234 317846 338566 -173085
832782907383633024 351249 317952 338551 -173108
832782907401844224 351337 317994 338591 -173095
832782907420055552 351464 318126 338597 -173056
832782907438266752 351612 318315 338552 -173130
832782907456477952 351909 318517 338565 -173064
832782907474689152 351951 318536 338576 -173098
832782907492900352 351727 318439 338583 -173087
832782907511111552 351372 318090 338511 -173055
832782907529322752 351172 317843 338517 -173086
832782907547533952 350891 317538 338584 -173060
832782907565745280 350765 317424 338590 -173094
832782907583956480 350785 317449 338555 -173099
832782907602167680 350931 317596 338557 -173076
832782907620378880 351130 317786 338674 -173019
832782907638590080 351221 317936 338626 -173051
832782907656801280 351255 317935 338609 -173074
832782907675012480 351323 318036 338620 -173037
832782907693223680 351353 318059 338605 -173074
832782907711435008 351504 318194 338597 -173061
832782907729646208 351734 318412 338608 -173048
832782907747857408 351917 318586 338626 -173089
832782907766068608 351865 318559 338586 -173077
832782907784279808 351594 318314 338573 -173076
832782907802491008 351324 318038 338569 -173094
832782907820702270 351069 317713 338554 -173096
832782907838914048 350848 317503 338560 -173085
832782907857125888 350761 317417 338607 -173042
832782907875337728 350835 317490 338582 -173076
832782907893549696 350963 317648 338608 -173022
832782907911761536 351127 317811 338564 -173010
832782907929973376 351207 317978 338635 -173027
832782907948185216 351319 318016 338598 -173028
832782907966397184 351385 318024 338617 -173022
832782907984609024 351487 318088 338617 -173076
832782908002820864 351609 318267 338593 -173106
832782908021032704 351803 318503 338591 -173078
832782908039244672 352064 318746 338620 -173081
832782908057456512 351888 318557 338583 -173088
832782908075668352 351624 318313 338613 -173097
832782908093880192 351261 317967 338599 -173077
832782908112092160 350915 317628 338558 -173037
832782908130304000 350743 317406 338563 -173067
832782908148515840 350779 317428 338646 -173010
832782908166727680 350876 317541 338569 -173042
832782908184939648 351022 317713 338567 -173035
832782908203151488 351165 317901 338639 -172976
832782908221363328 351266 317932 338644 -173024
832782908239575168 351327 317954 338568 -173044
832782908257787136 351373 318045 338626 -173057
832782908275998976 351510 318110 338602 -173044
832782908294210816 351639 318295 338636 -173085
832782908312422656 351866 318510 338601 -173077
832782908330634496 351893 318570 338577 -173043
832782908348846464 351825 318511 338592 -173016
832782908367058304 351455 318199 338533 -173055
832782908385270144 351125 317795 338538 -173094
832782908403481984 350945 317562 338546 -173062
832782908421693952 350756 317414 338578 -173098
832782908439905792 350771 317427 338614 -173100
832782908458117632 350956 317593 338600 -173078
832782908476329472 351079 317708 338624 -173058
832782908494541440 351186 317908 338568 -173075
832782908512753280 351225 317876 338514 -173068
832782908530965120 351288 317916 338535 -173022
832782908549176960 351455 318131 338466 -173105
832782908567388928 351609 318278 338547 -173057
832782908585600842 351731 318430 338584 -173064
832782908603811200 351858 318514 338530 -173038
832782908622021504 351828 318515 338541 -173072
832782908640231808 351693 318377 338590 -173055
832782908658441984 351423 318039 338624 -173025
832782908676652288 351043 317731 338609 -173019
832782908694862592 350820 317530 338544 -173005
