TIMESTAMP PPG0 PPG1 PPG2 AMBIENT
832783525393854336 376119 306255 332012 -173094
832783525412036096 376083 306173 331970 -173098
832783525430217984 376096 306263 332023 -173057
832783525448399744 376078 306238 332037 -173067
832783525466581632 376042 306216 332034 -173020
832783525484763392 376077 306225 331998 -173075
832783525502945280 376075 306218 331988 -173045
832783525521127040 376052 306169 331979 -173065
832783525539308928 376066 306225 331970 -173085
832783525557490688 376026 306171 331959 -173058
832783525575672576 376088 306244 331976 -173033
832783525593854336 376149 306301 331951 -173091
832783525612036096 376127 306261 331989 -173037
832783525630217984 376121 306251 331988 -173038
832783525648399744 376149 306263 332024 -173044
832783525666581632 376144 306247 331996 -172982
832783525684763392 376102 306254 332009 -173008
832783525702945280 376078 306210 331996 -173023
832783525721127040 376068 306192 331991 -173078
832783525739308928 376049 306234 331986 -173097
832783525757490688 376046 306263 331959 -173105
832783525775672576 376061 306195 331975 -173091
832783525793854336 376135 306200 332008 -173099
832783525812036096 376115 306238 332008 -173060
832783525830217984 376129 306197 332025 -173053
832783525848399744 376139 306234 332017 -173070
832783525866581632 376094 306264 332021 -173062
832783525884763392 376084 306299 332003 -173090
832783525902945280 376052 306311 331974 -173071
832783525921127040 376088 306275 331897 -173087
832783525939308928 376098 306212 331987 -173080
832783525957490688 376143 306163 331930 -173109
832783525975672576 376085 306201 332009 -173096
832783525993854336 376068 306155 331976 -173069
832783526012036096 375992 306095 331919 -173087
832783526030217984 376079 306163 331975 -173081
832783526048399744 376074 306237 331993 -173057
832783526066581632 376092 306208 331940 -173089
832783526084763392 376049 306195 331930 -173078
832783526102945280 376089 306173 331998 -173081
832783526121127040 376089 306173 331957 -173060
832783526139308928 376037 306201 331948 -173132
832783526157490688 376089 306159 331968 -173116
832783526175672576 376080 306199 331960 -173028
832783526193854336 376033 306222 331997 -173106
832783526212036096 376062 306210 332027 -173139
832783526230217984 376117 306265 331956 -173087
832783526248399744 376103 306231 331985 -173040
832783526266581632 376119 306255 332027 -173024
832783526284763392 376071 306239 332012 -173109
832783526302945280 376020 306164 331965 -173041
832783526321126996 376137 306241 332038 -173042
832783526339339392 376120 306212 332032 -173079
832783526357551744 376132 306200 331951 -173138
832783526375764096 376045 306240 332007 -173079
832783526393976320 376077 306235 332049 -173057
832783526412188672 376047 306235 331986 -173058
832783526430401024 376098 306231 331989 -173019
832783526448613376 376081 306234 332044 -173059
832783526466825600 376102 306243 332000 -173062
832783526485037952 376140 306228 332032 -173023
832783526503250304 376118 306261 331993 -173036
832783526521462656 376083 306257 331958 -173103
832783526539674880 376128 306282 332010 -173075
832783526557887232 376060 306245 332023 -173077
832783526576099584 376083 306255 331978 -173088
832783526594311936 376086 306239 331981 -173099
832783526612524160 376078 306266 331999 -173075
832783526630736512 376071 306188 332005 -173097
832783526648948864 376115 306206 332014 -173055
832783526667161216 376072 306205 332009 -173057
832783526685373440 376112 306245 331991 -173076
832783526703585792 376117 306189 332014 -173062
832783526721798144 376108 306244 332027 -173027
832783526740010496 376101 306232 332042 -173039
832783526758222720 376071 306239 332000 -173091
832783526776435072 376176 306234 332041 -173025
832783526794647424 376147 306292 332009 -173120
832783526812859776 376203 306258 332036 -173093
832783526831072000 376130 306296 332061 -172987
832783526849284352 376147 306289 332019 -173063
832783526867496704 376068 306275 331974 -173068
832783526885709056 376098 306266 332013 -173006
832783526903921280 376191 306266 332012 -172975
832783526922133632 376088 306235 331979 -173060
832783526940345984 376127 306297 332065 -172999
832783526958558336 376189 306252 332027 -172988
832783526976770560 376142 306231 332062 -173006
832783526994982912 376125 306282 332038 -173069
832783527013195264 376129 306259 332034 -173005
832783527031407616 376074 306256 332016 -173071
832783527049619968 376126 306259 332057 -173065
832783527067832192 376095 306272 332050 -173033
832783527086044544 376128 306272 332024 -173077
832783527104256896 376080 306175 331997 -173038
832783527122469248 376099 306211 331989 -173091
832783527140681472 376093 306215 332023 -173077
832783527158893824 376067 306200 332038 -173042
832783527177106176 376089 306262 332008 -173093
832783527195318528 376161 306241 332031 -173045
832783527213530752 376153 306212 332026 -173036
832783527231743104 376112 306198 332045 -173038
832783527249955456 376054 306209 331963 -173047
832783527268167680 376089 306226 331945 -173064
832783527286380160 376093 306213 331975 -173095
832783527304592640 376050 306195 331955 -173059
832783527322805120 376058 306199 331985 -173033
832783527341017472 376064 306174 331970 -173065
832783527359229952 376063 306211 331990 -173098
832783527377442432 376065 306239 332007 -173060
832783527395654912 382497 312564 332033 -172995
832783527413867392 384696 314795 331963 -173025
832783527432079872 385061 315133 332108 -173065
832783527450292224 384765 314877 332017 -173086
832783527468504704 384552 314689 332014 -172999
832783527486717184 384693 314843 332062 -173055
832783527504929664 385192 315254 332000 -173091
832783527523142144 385586 315656 332024 -173077
832783527541354624 385946 316083 332045 -173069
832783527559566976 386119 316208 332040 -173024
832783527577779456 386229 316353 332041 -173085
832783527595991936 386445 316466 332036 -173087
832783527614204416 386782 316844 332049 -173061
832783527632416896 387262 317415 332036 -173074
832783527650629376 387646 317843 332025 -173128
832783527668841728 387783 317892 331974 -173098
832783527687054208 387369 317534 332004 -173105
832783527705266688 386536 316682 331974 -173116
832783527723479168 385663 315775 332025 -173129
832783527741691648 384919 315012 331979 -173077
832783527759904128 384626 314743 331962 -173053
832783527778116480 384806 314909 331947 -173094
832783527796328968 385251 315435 331981 -173037
832783527814541440 385627 315764 331927 -173094
832783527832753920 385980 316082 332023 -173097
832783527850966400 386142 316248 331979 -173039
832783527869178880 386238 316339 331977 -173053
832783527887391360 386508 316556 331977 -173078
832783527905603840 386859 316999 331980 -173120
832783527923816320 387432 317516 331981 -173073
832783527942028800 387884 317981 332009 -173020
832783527960241408 387770 317875 332043 -173007
832783527978453888 387161 317341 332044 -173019
832783527996666368 386256 316398 331992 -173025
832783528014878848 385412 315525 332022 -173073
832783528033091328 384856 314963 331977 -173052
832783528051303808 384748 314810 332013 -173074
832783528069516288 384962 315034 331976 -173057
832783528087728768 385482 315493 331971 -173098
832783528105941248 385811 315929 331985 -173046
832783528124153728 386046 316111 332005 -173063
832783528142366208 386186 316256 332011 -173042
832783528160578688 386340 316418 332054 -173036
832783528178791168 386640 316654 332042 -173027
832783528197003648 387086 317138 331969 -173106
832783528215216128 387571 317632 332012 -173110
832783528233428736 387968 317981 332025 -173042
832783528251641216 387613 317686 332034 -173121
832783528269853696 386944 317016 331991 -173053
832783528288066176 385972 316105 332027 -173091
832783528306278656 385177 315304 332047 -173086
832783528324491136 384756 314856 332023 -173038
832783528342703616 384755 314808 331988 -173102
832783528360916096 385141 315198 331956 -173025
832783528379128576 385614 315649 331981 -173046
832783528397341056 385913 316000 332008 -173079
832783528415553536 386104 316152 331944 -173055
832783528433766066 386183 316259 331989 -173108
832783528451978752 386370 316479 332023 -173133
832783528470191488 386749 316797 331976 -173094
832783528488404224 387276 317314 332002 -173067
832783528506616960 387760 317826 332007 -173094
832783528524829696 387861 317951 331985 -173056
832783528543042560 387489 317552 332074 -173024
832783528561255296 386656 316759 332012 -173026
832783528579468032 385715 315867 331991 -173021
832783528597680768 384988 315139 332004 -173085
832783528615893504 384742 314844 332014 -173008
832783528634106240 384812 314916 331970 -173082
832783528652318976 385177 315337 331971 -173090
832783528670531712 385670 315803 332042 -173051
832783528688744448 386013 316099 332036 -173094
832783528706957312 386108 316206 331991 -173044
832783528725170048 386170 316343 331953 -173082
832783528743382784 386443 316573 332045 -172972
832783528761595520 386837 316966 332043 -173004
832783528779808256 387378 317538 332016 -173022
832783528798020992 387862 317949 332017 -173011
832783528816233728 387802 317929 332078 -173030
832783528834446464 387299 317400 332129 -173056
832783528852659200 386352 316506 332040 -173089
832783528870872064 385479 315560 332025 -173093
832783528889084800 384901 314934 332085 -173043
832783528907297536 384686 314808 332013 -173038
832783528925510272 384909 315014 331998 -173057
832783528943723008 385344 315452 332028 -173042
832783528961935744 385805 315930 332022 -173026
832783528980148480 386058 316153 331978 -173072
832783528998361216 386131 316194 332004 -173103
832783529016573952 386335 316393 332013 -173028
832783529034786816 386743 316802 332030 -173016
832783529052999552 387135 317177 332020 -173046
832783529071212320 387633 317738 331994 -173074
832783529089426176 387899 317981 332012 -173052
832783529107640064 387675 317761 332059 -173037
832783529125853952 386989 317118 332042 -173007
832783529144067840 386056 316157 331997 -173053
832783529162281728 385241 315385 332043 -173043
832783529180495616 384820 314893 332007 -173082
832783529198709504 384696 314842 331995 -173089
832783529216923392 385024 315082 331962 -173098
832783529235137280 385500 315590 331950 -173068
832783529253351168 385846 315983 331996 -173090
832783529271565056 386067 316180 331958 -173059
832783529289778944 386171 316285 331938 -173094
832783529307992832 386333 316341 331950 -173048
832783529326206720 386706 316778 331959 -173046
832783529344420480 387311 317346 332028 -173047
832783529362634368 387700 317811 332017 -173067
832783529380848256 387918 317966 332085 -173074
832783529399062144 387515 317562 332026 -173070
832783529417276032 386729 316799 331990 -173090
832783529435489920 385775 315851 331987 -173033
832783529453703808 385059 315133 332020 -173048
832783529471917696 384648 314783 331974 -173075
832783529490131584 384806 314922 332002 -173061
832783529508345472 385227 315311 332023 -173006
832783529526559360 385682 315771 332025 -173019
832783529544773248 386102 316202 332024 -173077
832783529562987136 386163 316256 332003 -173082
832783529581201024 386257 316346 331987 -173018
832783529599414912 386483 316543 332039 -173062
832783529617628800 386831 316909 332022 -173055
832783529635842688 387341 317444 331965 -173123
832783529654056576 387831 317876 331969 -173093
832783529672270464 387787 317862 331981 -173092
832783529690484352 387245 317322 332008 -173124
832783529708698238 386389 316479 332060 -173125
832783529726912256 385404 315537 332022 -173106
832783529745126272 384747 314949 331964 -173146
832783529763340288 384652 314792 332032 -173057
832783529781554304 384920 315001 332015 -173050
832783529799768320 385315 315477 332063 -173056
832783529817982336 385760 315916 332094 -173070
832783529836196352 386001 316125 332007 -173124
832783529854410368 386162 316277 331971 -173033
832783529872624384 386357 316398 332073 -172954
832783529890838400 386573 316649 332039 -173071
832783529909052416 386932 317058 332004 -173064
832783529927266432 387537 317602 331996 -173063
832783529945480448 387799 317905 331959 -173033
832783529963694464 387699 317776 332079 -173040
832783529981908480 386972 317158 331987 -173088
832783530000122496 386172 316361 332045 -173072
832783530018336512 385324 315427 331960 -173097
832783530036550528 384757 314891 331977 -173107
832783530054764544 384742 314793 332008 -173087
832783530072978560 385062 315148 331989 -173042
832783530091192576 385462 315620 332005 -173065
832783530109406592 385807 315935 331944 -173107
832783530127620608 386059 316216 332003 -173055
832783530145834624 386149 316256 331980 -173112
832783530164048640 386301 316375 331936 -173073
832783530182262656 386637 316748 331993 -173034
832783530200476672 387182 317235 332007 -173061
832783530218690688 387671 317734 331979 -173102
832783530236904704 387844 317932 332020 -173086
832783530255118720 387498 317613 332003 -173047
832783530273332736 386684 316869 331978 -173112
832783530291546752 385835 315936 332013 -173029
832783530309760768 384970 315105 331936 -173087
832783530327974784 384654 314795 331989 -173097
832783530346188742 384767 314903 332054 -173072
832783530364401280 385132 315278 332062 -173048
832783530382613760 385563 315709 332010 -173077
832783530400826112 385932 316053 331982 -173089
832783530419038592 386145 316276 332020 -173040
832783530437251072 386238 316358 332014 -173104
832783530455463552 386424 316550 332011 -173021
832783530473675904 386744 316852 332021 -173068
832783530491888384 387239 317388 332016 -173060
832783530510100864 387896 318041 331971 -173056
832783530528313344 387831 317938 331980 -173087
832783530546525696 387268 317448 331980 -173094
832783530564738176 386387 316547 332020 -173107
832783530582950656 385486 315710 331996 -173110
832783530601163008 384846 314998 331955 -173069
832783530619375488 384669 314746 331955 -173057
832783530637587968 384880 314933 331989 -173048
832783530655800448 385295 315430 332037 -173115
832783530674012800 385720 315824 331970 -173087
832783530692225280 385975 316092 331946 -173099
832783530710437760 386128 316232 332030 -173096
832783530728650240 386234 316398 331990 -173065
832783530746862592 386516 316687 332062 -173067
832783530765075072 386938 317096 331987 -173039
832783530783287552 387440 317619 332033 -173080
832783530801499904 387815 317968 332061 -173131
832783530819712384 387667 317842 332042 -173099
832783530837924864 387026 317231 332080 -173065
832783530856137344 386126 316285 332066 -173076
832783530874349696 385303 315430 332022 -173076
832783530892562176 384750 314860 332017 -173061
832783530910774656 384721 314840 332033 -173080
832783530928987008 385023 315144 332033 -173052
832783530947199488 385401 315542 332002 -173062
832783530965411968 385760 315926 331909 -173124
832783530983624312 386033 316157 331973 -173077
832783531001835392 386111 316202 331993 -173088
832783531020046464 386230 316345 331902 -173111
832783531038257536 386608 316670 331936 -173039
832783531056468736 387138 317182 331969 -173080
832783531074679808 387643 317793 332009 -173088
832783531092890880 387839 318035 332021 -173057
832783531111101952 387517 317684 332070 -173053
832783531129313024 386812 316947 332070 -173059
832783531147524096 385836 316017 332048 -173070
832783531165735296 385091 315276 332060 -173031
832783531183946368 384721 314811 331995 -173011
832783531202157440 384767 314896 332023 -173014
832783531220368512 385078 315218 332006 -173036
832783531238579584 385624 315675 332046 -173062
832783531256790656 385900 315997 331997 -173088
832783531275001856 386076 316177 331980 -173035
832783531293212928 386161 316280 331974 -173105
832783531311424000 386387 316461 331936 -173160
832783531329635072 386739 316891 331944 -173125
832783531347846144 387265 317400 331999 -173060
832783531366057216 387711 317866 331987 -173085
832783531384268416 387741 317940 331983 -173064
832783531402479488 387219 317432 331894 -173128
832783531420690560 386435 316619 331954 -173137
832783531438901632 385553 315719 331979 -173074
832783531457112704 384966 315055 331972 -173058
832783531475323776 384628 314765 332003 -173038
832783531493534976 384804 314966 332015 -173096
832783531511746048 385255 315377 332021 -173095
832783531529957120 385819 315953 332039 -173094
832783531548168192 386057 316164 331997 -173094
832783531566379264 386148 316250 332010 -173099
832783531584590336 386285 316369 331981 -173065
832783531602801536 386479 316622 331972 -173075
832783531621012582 386859 317010 331969 -173082
832783531639224960 387482 317606 331985 -173051
832783531657437312 387793 317932 331927 -173098
832783531675649792 387733 317887 331936 -173139
832783531693862144 387069 317152 331908 -173133
832783531712074624 386204 316300 331945 -173059
832783531730286976 385345 315463 332000 -173085
832783531748499328 384777 314929 332009 -173112
832783531766711808 384689 314774 331968 -173057
832783531784924160 384914 315102 331989 -173094
832783531803136512 385371 315534 331980 -173091
832783531821348992 385804 315929 332013 -173099
832783531839561344 386025 316195 331996 -173076
832783531857773824 386182 316315 332011 -173039
832783531875986176 386264 316364 331952 -173106
832783531894198528 386534 316620 332021 -173087
832783531912411008 387049 317125 331979 -173052
832783531930623360 387611 317684 332031 -173068
832783531948835840 387821 317917 332010 -173080
832783531967048192 387583 317691 332002 -173089
832783531985260544 386824 317014 331997 -173100
832783532003473024 385930 316109 332013 -173025
832783532021685376 385085 315283 331999 -173085
832783532039897728 384778 314877 331951 -173109
832783532058110208 384795 314872 331977 -173045
832783532076322560 385046 315172 331925 -173108
832783532094535040 385455 315592 331948 -173116
832783532112747392 385822 315957 332006 -173105
832783532130959744 386071 316177 331990 -173088
832783532149172224 386137 316289 331963 -173060
832783532167384576 386322 316448 331983 -173085
832783532185597056 386765 316814 331994 -173053
832783532203809408 387231 317365 331985 -173095
832783532222021760 387717 317835 331988 -173052
832783532240234240 387849 318025 332009 -173020
832783532258446620 387400 317580 332055 -172991
832783532276656256 386495 316732 331945 -173061
832783532294865920 385602 315769 331986 -173104
832783532313075712 384897 315084 331959 -173078
832783532331285376 384625 314791 332017 -173094
832783532349495040 384782 314914 331951 -173095
832783532367704704 385198 315323 332024 -173119
832783532385914496 385601 315759 331988 -173087
832783532404124160 385929 316057 331989 -173090
832783532422333824 386066 316197 332009 -173093
832783532440543488 386136 316282 331951 -173112
832783532458753280 386444 316560 331956 -173141
832783532476962944 386851 316988 331953 -173138
832783532495172608 387364 317522 331948 -173109
832783532513382272 387819 317939 331945 -173064
832783532531592064 387724 317836 331993 -173071
832783532549801728 387272 317426 331952 -173079
832783532568011392 386315 316455 331965 -173079
832783532586221184 385396 315527 331968 -173029
832783532604430848 384789 314911 331935 -173120
832783532622640512 384731 314795 332060 -173044
832783532640850176 384902 315021 332007 -173128
832783532659059968 385365 315487 331998 -173093
832783532677269632 385805 315848 331976 -173063
832783532695479296 385942 316110 331979 -173143
832783532713688960 386109 316210 331979 -173138
832783532731898752 386307 316398 331981 -173080
832783532750108416 386563 316654 331926 -173103
832783532768318080 386998 317162 331964 -173071
832783532786527744 387530 317755 331954 -173064
832783532804737536 387848 317974 331965 -173059
832783532822947200 387583 317701 331911 -173110
832783532841156864 386896 317080 331926 -173109
832783532859366656 386011 316203 332014 -173030
832783532877576320 385191 315299 332071 -173068
832783532895786056 384686 314821 331951 -173103
832783532913997440 384706 314824 332034 -173078
832783532932208768 385044 315191 332017 -173050
832783532950420096 385528 315631 332008 -173089
832783532968631552 385873 316025 331982 -173078
832783532986842880 386059 316196 331990 -173038
832783533005054208 386144 316300 331950 -173099
832783533023265536 386339 316494 332022 -173039
832783533041476864 386681 316821 331935 -173071
832783533059688320 387241 317341 331962 -173020
832783533077899648 387735 317799 331956 -173090
832783533096110976 387834 317973 331985 -173090
832783533114322304 387490 317543 331994 -173058
832783533132533760 386629 316710 331950 -173071
832783533150745088 385711 315822 331976 -173058
832783533168956416 384982 315084 331964 -173106
832783533187167744 384671 314869 331994 -173077
832783533205379072 384825 314958 331997 -173102
832783533223590528 385247 315363 331995 -173053
832783533241801856 385661 315815 331989 -173047
832783533260013184 385919 316046 331985 -173035
832783533278224512 386141 316257 331986 -173023
832783533296435840 386230 316322 331957 -173078
832783533314647296 386459 316513 331960 -173093
832783533332858624 386809 316977 332014 -173039
832783533351069952 387373 317519 332000 -173086
832783533369281280 387771 317913 331974 -173108
832783533387492736 387739 317872 332027 -173059
832783533405704064 387211 317292 331985 -173085
832783533423915392 386307 316462 331989 -173045
832783533442126720 385382 315671 331983 -173079
832783533460338048 384846 315063 332020 -173016
832783533478549504 384654 314899 332030 -173076
832783533496760832 384939 315080 332022 -173034
832783533514972160 385511 315614 332028 -172969
832783533533183484 385828 315926 331986 -173094
832783533551394688 386063 316155 331956 -173068
832783533569605888 386150 316270 332009 -173092
832783533587816960 386272 316385 332029 -173071
832783533606028160 386522 316708 332026 -173107
832783533624239232 386973 317123 331969 -173076
832783533642450432 387560 317683 332025 -173052
832783533660661504 387815 317988 331958 -173137
832783533678872704 387650 317782 331980 -173057
832783533697083776 386969 317103 332016 -173067
832783533715294976 386093 316181 332037 -172988
832783533733506048 385176 315389 332027 -173061
832783533751717248 384745 314825 331999 -173063
832783533769928320 384736 314852 331975 -173088
832783533788139520 385114 315155 332003 -173073
832783533806350592 385513 315663 331937 -173076
832783533824561792 385882 315976 331912 -173059
832783533842772864 386082 316198 331960 -173063
832783533860984064 386215 316283 332022 -172980
832783533879195136 386329 316447 332027 -173046
832783533897406336 386654 316834 332026 -173069
832783533915617408 387157 317347 332007 -173026
832783533933828608 387691 317818 332014 -173056
832783533952039680 387845 317926 331982 -173077
832783533970250880 387512 317602 331998 -173088
832783533988461952 386643 316806 332022 -173119
832783534006673152 385780 315930 332042 -173069
832783534024884224 385100 315232 331971 -173020
832783534043095424 384720 314806 331999 -173069
832783534061306496 384824 314909 331968 -173048
832783534079517696 385176 315269 331981 -173064
832783534097728768 385648 315788 332056 -173012
832783534115939968 385983 316119 332002 -173044
832783534134151040 386101 316229 332002 -173042
832783534152362240 386178 316276 331962 -173072
832783534170573278 386401 316494 331937 -173039
832783534188784128 386786 316906 331975 -173067
832783534206994944 387342 317439 331942 -173086
832783534225205888 387788 317904 331979 -173090
832783534243416704 387808 317947 332028 -173051
832783534261627648 387218 317305 332010 -173052
832783534279838464 386433 316477 332013 -173041
832783534298049408 385493 315675 332033 -173106
832783534316260224 384875 315011 332002 -173089
832783534334471168 384704 314864 331995 -173051
832783534352681984 384867 315025 332006 -173029
832783534370892928 385340 315498 331965 -173072
832783534389103744 385734 315882 332014 -173063
832783534407314688 386014 316067 331952 -173123
832783534425525504 386082 316207 331969 -173128
832783534443736320 386289 316395 332027 -173047
832783534461947264 386585 316623 331991 -173043
832783534480158080 387035 317137 332027 -173036
832783534498369024 387578 317641 331995 -173060
832783534516579840 387872 318008 332013 -173074
832783534534790784 387675 317766 332033 -173073
832783534553001600 387025 317213 332039 -173041
832783534571212544 386136 316298 332043 -173017
832783534589423360 385288 315457 332029 -173024
832783534607634304 384728 314899 332033 -173082
832783534625845120 384692 314865 332026 -173056
832783534644056064 384983 315118 332051 -173082
832783534662266880 385470 315553 332017 -173068
832783534680477696 385788 315919 331971 -173109
832783534698688640 386056 316131 331974 -173102
832783534716899456 386118 316238 332021 -173072
832783534735110400 386291 316429 331995 -173094
832783534753321216 386622 316753 331979 -173068
832783534771532160 387118 317230 331969 -173088
832783534789742976 387637 317748 332007 -173056
832783534807953908 387887 317943 331980 -173072
832783534826164096 387552 317602 332027 -173038
832783534844374272 386731 316863 332041 -173081
832783534862584448 385809 315957 332000 -173047
832783534880794624 385034 315221 332012 -173036
832783534899004800 384603 314845 332003 -173081
832783534917214976 384717 314923 332034 -173128
832783534935425152 385121 315268 331994 -173075
832783534953635328 385536 315716 331977 -173120
832783534971845504 385876 316017 331970 -173100
832783534990055680 386090 316224 332041 -173058
832783535008265856 386097 316306 331962 -173073
832783535026476032 386392 316470 332026 -173040
832783535044686208 386804 316871 331980 -173035
832783535062896384 387361 317444 331937 -173061
832783535081106560 387780 317869 331965 -173094
832783535099316736 387781 317877 331954 -173121
832783535117526912 387315 317360 331928 -173137
832783535135737088 386435 316572 331987 -173020
832783535153947264 385545 315683 332043 -173047
832783535172157440 384933 315029 332013 -172994
832783535190367616 384700 314756 331985 -173092
832783535208577792 384837 314996 331965 -173102
832783535226787968 385256 315434 331976 -173078
832783535244998144 385727 315782 332070 -173078
832783535263208320 385997 316135 332047 -173086
832783535281418496 386132 316238 331979 -173091
832783535299628672 386187 316407 331957 -173103
832783535317838848 386485 316663 331959 -173068
832783535336049024 386935 317121 332021 -173020
832783535354259200 387467 317578 331945 -173052
832783535372469376 387811 317939 331965 -173058
832783535390679552 387747 317777 331950 -173075
832783535408889728 387087 317166 332003 -173076
832783535427099904 386155 316300 332022 -173100
832783535445310132 385238 315438 331918 -173126
832783535463520512 384769 314871 331988 -173043
832783535481730944 384708 314830 332059 -173102
832783535499941376 385087 315218 332014 -173055
832783535518151808 385484 315564 331976 -173071
832783535536362240 385826 315972 331968 -173047
832783535554572672 385997 316155 331928 -173078
832783535572783104 386142 316280 331995 -173061
832783535590993536 386279 316426 331965 -173117
832783535609203968 386572 316740 331977 -173104
832783535627414528 387083 317268 331998 -173091
832783535645624960 387586 317723 331951 -173106
832783535663835392 387858 317980 332019 -173060
832783535682045824 387578 317716 331998 -173040
832783535700256256 386875 316966 332016 -173012
832783535718466688 385938 316070 332010 -173003
832783535736677120 385104 315239 331962 -173069
832783535754887552 384709 314779 331986 -172991
832783535773097984 384723 314869 331955 -173034
832783535791308416 385114 315225 332002 -173036
832783535809518848 385501 315681 332000 -173041
832783535827729280 385898 316036 331997 -173069
832783535845939712 386147 316241 331997 -173099
832783535864150144 386197 316322 332040 -173043
832783535882360576 386359 316489 332024 -173087
832783535900571008 386825 316928 332096 -173008
832783535918781440 387272 317433 332019 -173091
832783535936992000 387772 317887 332039 -173043
832783535955202432 387784 317913 332007 -173033
832783535973412864 387377 317468 332027 -173054
832783535991623296 386534 316666 331989 -173058
832783536009833728 385688 315849 331981 -173097
832783536028044160 384973 315165 331958 -173079
832783536046254592 384723 314818 331980 -173044
832783536064465024 384846 314975 331995 -173036
832783536082675514 385243 315414 332049 -173021
832783536100887168 385676 315854 331985 -173065
832783536119098880 385965 316118 331965 -173038
832783536137310720 386142 316297 332059 -173026
832783536155522432 386303 316339 332030 -173016
832783536173734144 386505 316657 332062 -173042
832783536191945856 386912 317021 332011 -173094
832783536210157696 387490 317541 332041 -173111
832783536228369408 387798 317995 331998 -173037
832783536246581120 387668 317837 331961 -173074
832783536264792832 387109 317199 331979 -173109
832783536283004672 386197 316373 332012 -173088
832783536301216384 385324 315434 331918 -173098
832783536319428096 384821 314929 331988 -173067
832783536337639936 384737 314806 332039 -173057
832783536355851648 384975 315113 331950 -173052
832783536374063360 385409 315551 331968 -173048
832783536392275072 385774 315905 331962 -173102
832783536410486912 386041 316194 332022 -173028
832783536428698624 386149 316295 332023 -173063
832783536446910336 386270 316376 331999 -173110
832783536465122176 386617 316681 332021 -173078
832783536483333888 387089 317236 332037 -173097
832783536501545600 387579 317754 331993 -173036
832783536519757312 387878 317945 331993 -173090
832783536537969152 387610 317699 331992 -173095
832783536556180864 386880 317029 331999 -173070
832783536574392576 385976 316076 331990 -173040
832783536592604288 385152 315257 331956 -173078
832783536610816128 384683 314817 331936 -173095
832783536629027840 384756 314861 331987 -173097
832783536647239552 385069 315176 332024 -173076
832783536665451392 385550 315628 332072 -173040
832783536683663104 385819 315955 332055 -173039
832783536701874816 386068 316211 331985 -173038
832783536720086672 386234 316345 332024 -173058
832783536738299776 386333 316403 332012 -173091
832783536756512896 386725 316844 332033 -173077
832783536774726016 387286 317364 332034 -173048
832783536792939264 387752 317801 331953 -173080
832783536811152384 387841 317945 332007 -173061
832783536829365504 387397 317529 331997 -173065
832783536847578624 386573 316758 332021 -173074
832783536865791744 385595 315809 331969 -173058
832783536884004864 384913 315102 332023 -173099
832783536902218112 384664 314811 331943 -173091
832783536920431232 384834 314945 331999 -173042
832783536938644352 385158 315301 331940 -173108
832783536956857472 385674 315796 331969 -173113
832783536975070592 385922 316036 331978 -173077
832783536993283712 386082 316216 331969 -173102
832783537011496960 386247 316309 332076 -173043
832783537029710080 386428 316551 331998 -173092
832783537047923200 386817 316968 331950 -173071
832783537066136320 387344 317478 331976 -173080
832783537084349440 387753 317972 332041 -173073
832783537102562560 387734 317881 331987 -173059
832783537120775808 387197 317287 332006 -173058
832783537138988928 386314 316432 331981 -173062
832783537157202048 385427 315555 331995 -173018
832783537175415168 384807 314968 331960 -173077
832783537193628288 384619 314801 331954 -173044
832783537211841536 384863 315064 331937 -173107
832783537230054656 385369 315504 331982 -173119
832783537248267776 385854 315956 332104 -173044
832783537266480896 386039 316107 331972 -173082
832783537284694016 386137 316298 332020 -173092
832783537302907136 386354 316436 332011 -173059
832783537321120384 386569 316701 332033 -173119
832783537339333504 387017 317149 332016 -173104
832783537357546650 387535 317677 332004 -173111
832783537375759232 387848 317883 332013 -173088
832783537393971840 387591 317780 332017 -173044
832783537412184320 386900 317078 332036 -173028
832783537430396928 385993 316136 332045 -173035
832783537448609536 385206 315274 332017 -173095
832783537466822144 384675 314829 331986 -173093
832783537485034624 384715 314833 332011 -173070
832783537503247232 385096 315222 331974 -173055
832783537521459840 385495 315546 331916 -173112
832783537539672448 385823 315941 331953 -173148
832783537557884928 386079 316176 332005 -173105
832783537576097536 386127 316245 331976 -173054
832783537594310144 386327 316433 331970 -173018
832783537612522752 386723 316835 332009 -173022
832783537630735232 387240 317355 332000 -173043
832783537648947840 387686 317857 332025 -173043
832783537667160448 387877 318006 332000 -173068
832783537685373056 387440 317573 332024 -173071
832783537703585536 386646 316719 332037 -173100
832783537721798144 385722 315882 332063 -173062
832783537740010752 385039 315147 332044 -173047
832783537758223360 384694 314752 331955 -173056
832783537776435840 384779 314907 331935 -173110
832783537794648448 385182 315297 332013 -173054
832783537812861056 385638 315776 332011 -173036
832783537831073664 385996 316092 331960 -173003
832783537849286144 386094 316232 331981 -173064
832783537867498752 386218 316257 332017 -173075
832783537885711360 386384 316564 331998 -173077
832783537903923968 386845 316967 332042 -172996
832783537922136448 387360 317483 331999 -173047
832783537940349056 387851 317911 332011 -173005
832783537958561664 387779 317902 331992 -173046
832783537976774272 387176 317357 332002 -173099
832783537994986798 386442 316558 331988 -173040
832783538013199616 385519 315643 332047 -173029
832783538031412480 384806 314962 331993 -173069
832783538049625344 384686 314755 332030 -173067
832783538067838080 384912 315050 332085 -173091
832783538086050944 385345 315555 332033 -173018
832783538104263808 385686 315793 332039 -173030
832783538122476672 385995 316166 332053 -173035
832783538140689536 386141 316285 332041 -173016
832783538158902272 386269 316418 332071 -173002
832783538177115136 386589 316701 332061 -173046
832783538195328000 387019 317169 332055 -173044
832783538213540864 387578 317684 332023 -173051
832783538231753600 387841 317971 332041 -173016
832783538249966464 387750 317835 332067 -172995
832783538268179328 386994 317131 332049 -173018
832783538286392192 386048 316190 331977 -173081
832783538304605056 385260 315385 331965 -172996
832783538322817792 384761 314914 331944 -173093
832783538341030656 384759 314841 331973 -173010
832783538359243520 384968 315132 331961 -173051
832783538377456384 385481 315642 331986 -173047
832783538395669248 385836 315994 331978 -173061
832783538413881984 386065 316195 332014 -173044
832783538432094848 386172 316289 332021 -173080
832783538450307712 386356 316473 332010 -173020
832783538468520576 386694 316741 331939 -173062
832783538486733440 387199 317279 332005 -173031
832783538504946176 387703 317800 332050 -173011
832783538523159040 387803 317940 331998 -173030
832783538541371904 387480 317602 331961 -173046
832783538559584768 386763 316838 332033 -173003
832783538577797632 385793 315895 332030 -173063
832783538596010368 385023 315196 331991 -172994
832783538614223232 384685 314827 332023 -173057
832783538632436104 384769 314905 331981 -172996
832783538650649216 385081 315292 331952 -173050
832783538668862336 385590 315754 332029 -173012
832783538687075456 385933 316065 331991 -173052
832783538705288704 386116 316206 332038 -173045
832783538723501824 386192 316326 331998 -173086
832783538741714944 386433 316568 331997 -173003
832783538759928064 386855 316867 331942 -173051
832783538778141184 387338 317466 331961 -173055
832783538796354304 387808 317893 332006 -173087
832783538814567552 387819 317903 332031 -173078
832783538832780672 387218 317425 331983 -173105
832783538850993792 386381 316570 332029 -173072
832783538869206912 385503 315640 331996 -173061
832783538887420032 384891 315063 332058 -173021
832783538905633152 384666 314818 332024 -173092
832783538923846400 384899 315028 332032 -173010
832783538942059520 385428 315431 332005 -173031
832783538960272640 385699 315857 331962 -173045
832783538978485760 386023 316156 332051 -173031
832783538996698880 386109 316236 332027 -173078
832783539014912128 386263 316316 331992 -173098
832783539033125248 386581 316582 332044 -173047
832783539051338368 387001 317082 332020 -173074
832783539069551488 387541 317627 332016 -173064
832783539087764608 387837 317902 331953 -173127
832783539105977728 387735 317785 332032 -173096
832783539124190976 387046 317133 332011 -173079
832783539142404096 386133 316247 332043 -173078
832783539160617216 385312 315472 331999 -173014
832783539178830336 384825 314947 332030 -173062
832783539197043456 384711 314871 331981 -173022
832783539215256576 384972 315155 332039 -173009
832783539233469824 385452 315537 331941 -173055
832783539251682944 385824 315997 332049 -173052
832783539269896090 386041 316168 331968 -173070
832783539288109184 386118 316276 331917 -173063
832783539306322304 386323 316428 331946 -173067
832783539324535424 386645 316759 331992 -173104
832783539342748672 387139 317297 332033 -173039
832783539360961792 387650 317814 332024 -173048
832783539379174912 387815 318031 332016 -173044
832783539397388032 387552 317665 332079 -173044
832783539415601152 386778 316909 332042 -173030
832783539433814272 385899 316001 332022 -173001
832783539452027520 385121 315272 332023 -173013
832783539470240640 384699 314886 332054 -173057
832783539488453760 384785 314932 331992 -173071
832783539506666880 385158 315286 331995 -173043
832783539524880000 385604 315749 332053 -173089
832783539543093120 385927 316062 332017 -173046
832783539561306368 386032 316204 331941 -173073
832783539579519488 386204 316338 331918 -173043
832783539597732608 386343 316530 331926 -173097
832783539615945728 386832 316894 331930 -173067
832783539634158848 387295 317364 331939 -173073
832783539652371968 387773 317875 331992 -173088
832783539670585216 387783 317993 331999 -173054
832783539688798336 387254 317450 331972 -173125
832783539707011456 386410 316582 331963 -173113
832783539725224576 385563 315726 331992 -173035
832783539743437696 384869 315014 332011 -173038
832783539761650944 384636 314813 331951 -173091
832783539779864064 384828 314994 331970 -173136
832783539798077184 385263 315395 331997 -173052
832783539816290304 385689 315838 331959 -173058
832783539834503424 385943 316106 331990 -173037
832783539852716544 386149 316248 332028 -173026
832783539870929792 386221 316335 332012 -173107
832783539889142912 386482 316578 332000 -173089
832783539907356068 386936 317050 332042 -173072
832783539925568640 387482 317546 332006 -173045
832783539943781248 387837 317950 332010 -173065
832783539961993728 387736 317882 332056 -173055
832783539980206336 387097 317211 332039 -173021
832783539998418944 386177 316302 332012 -173079
832783540016631552 385346 315471 331983 -173030
832783540034844032 384828 314944 331992 -173058
832783540053056640 384686 314820 332004 -173068
832783540071269248 384934 315112 332016 -173104
832783540089481856 385449 315544 331992 -173031
832783540107694336 385857 315984 331993 -173010
832783540125906944 386094 316187 332015 -173058
832783540144119552 386214 316277 331994 -173023
832783540162332160 386331 316422 331952 -173014
832783540180544640 386620 316728 331961 -173039
832783540198757248 387135 317166 331973 -173056
832783540216969856 387606 317728 331991 -173067
832783540235182464 387877 317959 331988 -173005
832783540253394944 387612 317696 332025 -173008
832783540271607552 386854 316933 332032 -173031
832783540289820160 385924 316093 331990 -173040
832783540308032768 385114 315254 331951 -173013
832783540326245248 384693 314874 332049 -173028
832783540344457856 384742 314854 332058 -172994
832783540362670464 385084 315206 331978 -173052
832783540380883072 385584 315729 332044 -173021
832783540399095552 385879 316079 331999 -173099
832783540417308160 386117 316296 332031 -173067
832783540435520768 386201 316321 331946 -173115
832783540453733376 386422 316543 332026 -173037
832783540471945856 386727 316905 332039 -173057
832783540490158464 387338 317439 332057 -173044
832783540508371072 387792 317883 332051 -173058
832783540526583680 387866 317946 331951 -173058
832783540544796216 387378 317464 332006 -173108
832783540563008640 386706 316791 332028 -173068
832783540581221120 385685 315812 331965 -173071
832783540599433600 384925 315087 332005 -173043
832783540617646080 384613 314757 331978 -173074
832783540635858560 384813 314918 332014 -173064
832783540654071040 385216 315329 331955 -173081
832783540672283520 385716 315771 332011 -173080
832783540690496000 386007 316122 331972 -173036
832783540708708608 386114 316214 332041 -173029
832783540726921088 386267 316353 332102 -173017
832783540745133568 386507 316617 332060 -173029
832783540763346048 386890 316974 332021 -173047
832783540781558528 387393 317531 331939 -173088
832783540799771008 387763 318024 331982 -173104
832783540817983488 387692 317889 331952 -173168
832783540836195968 387128 317268 331970 -173093
832783540854408448 386280 316352 332024 -173085
832783540872620928 385374 315530 332019 -173013
832783540890833408 384767 314905 331964 -173067
832783540909045888 384687 314849 331978 -173053
832783540927258368 385000 315077 332004 -173014
832783540945470848 385348 315498 331996 -173048
832783540963683328 385826 315891 332068 -173045
832783540981895936 386084 316159 332053 -173004
832783541000108416 386116 316312 331998 -173048
832783541018320896 386244 316365 331980 -173034
832783541036533376 386585 316664 331950 -173076
832783541054745856 387101 317270 332066 -173054
832783541072958336 387654 317774 332039 -173073
832783541091170816 387838 317986 331976 -173075
832783541109383296 387597 317742 332012 -173011
832783541127595776 386890 316979 332021 -173017
832783541145808256 385943 316123 332005 -173028
832783541164020736 385193 315283 331981 -173082
832783541182233314 384721 314890 331999 -173060
832783541200445696 384756 314881 332051 -173067
832783541218658048 385076 315174 331961 -173127
832783541236870400 385566 315636 332028 -173043
832783541255082752 385955 315998 331991 -173055
832783541273295104 386121 316194 332045 -172978
832783541291507456 386246 316297 332006 -173067
832783541309719808 386384 316502 332045 -173076
832783541327932160 386739 316841 332004 -173100
832783541346144512 387302 317381 332002 -173047
832783541364356864 387813 317886 332029 -173034
832783541382569216 387923 318031 332051 -172974
832783541400781568 387417 317535 331979 -173019
832783541418994048 386605 316734 332000 -173027
832783541437206400 385720 315876 332021 -173012
832783541455418752 385001 315128 332004 -173060
832783541473631104 384696 314796 331995 -173051
832783541491843456 384835 314913 332022 -173069
832783541510055808 385250 315414 332012 -172996
832783541528268160 385691 315837 331974 -173099
832783541546480512 386041 316126 331981 -173021
832783541564692864 386159 316299 331996 -172982
832783541582905216 386243 316426 332016 -173013
832783541601117568 386479 316636 332045 -172997
832783541619329920 386871 317059 332054 -173004
832783541637542272 387415 317540 332047 -173108
832783541655754624 387817 318019 332000 -173038
832783541673966976 387801 317933 331997 -173034
832783541692179328 387188 317315 332009 -173030
832783541710391680 386322 316460 332062 -173071
832783541728604032 385429 315566 332002 -173024
832783541746816384 384886 314971 332002 -172950
832783541765028736 384770 314818 331983 -172985
832783541783241088 385017 315065 332029 -173014
832783541801453440 385383 315480 331974 -173064
832783541819665834 385811 315910 331969 -173010
832783541837877504 386061 316158 332025 -173016
832783541856089216 386211 316326 331995 -173037
832783541874300800 386286 316389 331992 -173042
832783541892512512 386534 316688 331970 -173027
832783541910724096 387066 317170 332029 -173025
832783541928935808 387604 317723 332026 -173039
832783541947147520 387906 318034 332048 -173048
832783541965359104 387688 317796 332053 -173006
832783541983570816 386945 317119 332068 -173030
832783542001782400 385995 316221 332084 -172992
832783542019994112 385225 315341 332057 -173021
832783542038205824 384770 314867 332074 -173064
832783542056417408 384747 314826 332042 -172986
832783542074629120 385096 315161 332053 -172988
832783542092840704 385579 315654 332017 -173075
832783542111052416 385982 316044 332061 -173008
832783542129264000 386085 316192 332021 -173074
832783542147475712 386173 316340 331979 -173053
832783542165687424 386334 316436 332027 -173077
832783542183899008 386749 316775 331993 -173038
832783542202110720 387253 317355 332020 -173033
832783542220322304 387714 317843 332012 -173016
832783542238534016 387873 317978 332022 -172959
832783542256745728 387426 317579 331976 -173020
832783542274957312 386694 316789 332043 -172966
832783542293169024 385784 315863 331981 -172994
832783542311380608 385060 315159 332030 -173043
832783542329592320 384683 314892 331993 -173037
832783542347804032 384781 314944 332005 -173073
832783542366015616 385168 315309 331974 -173026
832783542384227328 385619 315809 331998 -173030
832783542402438912 386018 316139 332002 -172979
832783542420650624 386182 316298 332004 -173001
832783542438862336 386195 316374 331983 -173007
832783542457073932 386499 316602 332081 -172980
832783542475286784 386855 317041 332074 -173028
832783542493499648 387405 317474 332034 -172996
832783542511712512 387913 317999 332083 -173011
832783542529925248 387849 317979 332071 -173034
832783542548138112 387297 317391 332033 -173060
832783542566350976 386439 316592 332114 -173029
832783542584563840 385520 315666 332068 -173078
832783542602776704 384902 315062 332061 -173016
832783542620989440 384726 314856 332027 -173054
832783542639202304 384914 315021 332014 -173014
832783542657415168 385360 315492 332084 -173070
832783542675628032 385779 315902 332006 -173038
832783542693840768 386046 316190 332039 -173012
832783542712053632 386162 316255 332037 -173081
832783542730266496 386217 316401 332006 -173009
832783542748479360 386505 316682 332049 -173097
832783542766692224 387021 317165 332007 -173021
832783542784904960 387564 317699 332042 -173043
832783542803117824 387875 318041 332039 -173003
832783542821330688 387647 317797 332017 -173038
832783542839543552 387005 317203 332005 -173041
832783542857756416 386146 316233 332028 -172962
832783542875969152 385247 315429 331963 -173014
832783542894182016 384772 314950 332043 -172977
832783542912394880 384743 314846 332041 -172989
832783542930607744 385032 315154 332041 -173047
832783542948820608 385527 315609 331990 -173052
832783542967033344 385882 315943 332016 -173061
832783542985246208 386104 316219 332013 -173002
832783543003459072 386179 316273 331995 -173061
832783543021671936 386314 316448 332016 -173041
832783543039884800 386661 316795 331993 -173026
832783543058097536 387383 317459 331983 -173053
832783543076310400 387792 317846 331987 -173024
832783543094523238 387879 317993 331979 -173003
832783543112736384 387517 317635 332037 -172971
832783543130949504 386753 316835 332063 -172975
832783543149162624 385819 315920 331999 -173012
832783543167375744 385003 315169 331957 -173045
832783543185588736 384772 314875 332008 -173022
832783543203801856 384827 314907 331965 -172999
832783543222014976 385206 315374 332060 -172974
832783543240228096 385659 315766 331957 -173001
832783543258441216 385973 316071 331962 -173087
832783543276654336 386093 316271 332002 -173054
832783543294867328 386198 316362 331993 -172992
832783543313080448 386448 316551 332034 -172965
832783543331293568 386838 316957 332031 -173021
832783543349506688 387395 317519 332032 -172967
832783543367719808 387870 317967 332025 -173011
832783543385932928 387764 317957 332028 -172979
832783543404145920 387318 317453 332041 -173031
832783543422359040 386435 316588 332022 -173047
832783543440572160 385541 315670 331968 -173067
832783543458785280 384947 315025 332019 -173050
832783543476998400 384711 314828 331982 -173044
832783543495211520 384872 315039 332012 -173044
832783543513424512 385350 315421 332020 -173071
832783543531637632 385750 315868 331996 -173033
832783543549850752 386043 316160 332072 -173002
832783543568063872 386155 316278 332063 -173038
832783543586276992 386245 316330 332031 -173035
832783543604490112 386505 316583 332055 -173019
832783543622703104 386940 317040 332009 -173019
832783543640916224 387469 317643 332009 -173010
832783543659129344 387801 317963 331962 -173028
832783543677342464 387750 317854 331999 -173002
832783543695555584 387082 317216 331990 -173048
832783543713768704 386141 316310 331969 -173021
832783543731981696 385299 315409 332017 -173046
832783543750194304 384801 314940 332039 -173014
832783543768406912 384689 314859 331955 -173063
832783543786619520 385046 315096 331977 -173063
832783543804832128 385487 315625 332000 -173051
832783543823044736 385878 316009 332019 -173005
832783543841257344 386052 316166 332022 -173019
832783543859470080 386182 316279 332056 -173044
832783543877682688 386260 316446 332004 -173074
832783543895895296 386625 316765 331972 -173020
832783543914107904 387205 317301 332043 -173042
832783543932320512 387604 317803 332006 -173069
832783543950533120 387832 318023 332065 -172996
832783543968745728 387535 317679 331983 -172994
832783543986958336 386724 316925 331990 -173035
832783544005170944 385886 316010 332025 -173022
832783544023383552 385092 315199 332089 -173034
832783544041596160 384663 314854 331988 -173016
832783544059808896 384777 314889 332016 -173059
832783544078021504 385164 315259 332043 -173075
832783544096234112 385603 315766 331971 -173043
832783544114446720 385921 316055 331976 -173029
832783544132659328 386130 316225 332015 -173028
832783544150871936 386204 316311 331970 -173033
832783544169084544 386395 316500 332030 -173008
832783544187297152 386756 316894 332014 -173052
832783544205509760 387345 317467 332038 -172992
832783544223722368 387752 317923 332027 -173019
832783544241934976 387815 317944 332023 -173044
832783544260147584 387341 317447 332011 -173033
832783544278360320 386446 316606 331914 -173091
832783544296572928 385572 315733 331983 -173017
832783544314785536 384859 315045 332024 -173033
832783544332998144 384650 314827 332033 -173029
832783544351210752 384849 314947 332030 -173020
832783544369423372 385275 315423 331998 -173065
832783544387635712 385733 315900 331992 -173035
832783544405848064 385932 316063 331976 -173103
832783544424060416 386150 316207 331977 -173026
832783544442272768 386260 316365 331969 -173005
832783544460485120 386484 316642 331977 -172971
832783544478697472 386918 317066 332007 -173055
832783544496909824 387459 317596 332028 -173050
832783544515122176 387858 318021 332049 -173019
832783544533334528 387708 317843 332036 -173020
832783544551546880 387058 317075 331959 -173070
832783544569759232 386227 316290 332042 -173003
832783544587971584 385266 315429 331970 -173061
832783544606184064 384742 314899 331999 -173045
832783544624396416 384658 314835 331987 -173053
832783544642608768 384969 315054 331981 -173094
832783544660821120 385441 315594 332004 -173041
832783544679033472 385826 315923 331985 -173069
832783544697245824 386113 316155 331999 -173048
832783544715458176 386135 316264 331976 -173069
832783544733670528 386251 316436 331972 -173111
832783544751882880 386551 316683 331969 -173085
832783544770095232 387165 317198 332038 -173046
832783544788307584 387628 317718 332096 -173025
832783544806519936 387801 318017 332029 -173054
832783544824732288 387582 317739 332099 -173060
832783544842944640 386817 316958 332012 -173047
832783544861156992 385921 316017 332045 -173072
832783544879369344 385129 315230 332006 -173081
832783544897581696 384709 314794 332024 -173045
832783544915794048 384759 314911 332105 -173037
832783544934006400 385091 315191 331991 -173080
832783544952218752 385531 315636 331981 -173054
832783544970431104 385924 316041 332022 -173067
832783544988643456 386155 316245 332004 -173009
832783545006855882 386256 316365 331960 -172991
832783545025068928 386406 316482 331977 -173057
832783545043281920 386747 316834 331952 -173014
832783545061495040 387292 317424 331977 -173022
832783545079708032 387748 317837 331964 -173078
832783545097921152 387816 317968 332005 -173074
832783545116134144 387314 317448 331970 -173090
832783545134347264 386537 316694 332047 -173070
832783545152560256 385558 315789 332050 -173067
832783545170773376 384938 315076 332040 -173011
832783545188986368 384672 314799 332046 -173050
832783545207199488 384862 314912 332047 -173045
832783545225412480 385343 315418 332088 -173017
832783545243625600 385700 315776 332026 -173072
832783545261838592 385978 316087 332042 -173081
832783545280051712 386107 316262 332040 -173074
832783545298264704 386197 316365 332019 -173097
832783545316477824 386488 316597 332045 -173021
832783545334690816 386916 317041 332007 -173046
832783545352903936 387467 317585 332030 -173059
832783545371116928 387870 317994 332031 -173041
832783545389330048 387732 317918 331985 -173068
832783545407543040 387200 317282 332041 -173031
832783545425756160 386327 316451 332056 -173009
832783545443969152 385445 315544 332008 -173047
832783545462182272 384849 314952 332017 -173068
832783545480395264 384718 314804 332024 -173052
832783545498608384 384966 315018 331936 -173044
832783545516821376 385459 315522 331963 -173078
832783545535034496 385830 315966 331956 -173039
832783545553247488 386047 316207 331947 -173009
832783545571460608 386170 316344 332049 -173062
832783545589673600 386326 316452 332032 -173065
832783545607886720 386602 316745 331960 -173075
832783545626099712 387048 317221 331960 -173023
832783545644312818 387595 317714 331941 -173042
832783545662523008 387936 318021 332032 -173048
832783545680733184 387617 317762 332051 -173061
832783545698943360 386893 317029 332040 -173037
832783545717153536 385929 316135 331979 -173085
832783545735363712 385156 315363 332026 -173006
832783545753573888 384770 314918 332023 -172991
832783545771784064 384771 314858 332048 -173029
832783545789994240 385071 315153 331998 -173024
832783545808204416 385538 315649 332021 -173035
832783545826414592 385921 316055 332054 -173035
832783545844624768 386125 316236 332038 -173005
832783545862834944 386176 316316 331969 -173043
832783545881045120 386330 316507 332046 -173028
832783545899255296 386683 316824 331991 -173027
832783545917465472 387217 317340 332046 -173057
832783545935675648 387790 317801 332057 -173027
832783545953885824 387797 317966 332049 -173086
832783545972096000 387429 317533 332051 -173021
832783545990306176 386563 316657 331990 -173010
832783546008516352 385655 315794 331926 -173038
832783546026726528 384952 315087 331963 -173071
832783546044936704 384675 314839 332029 -173068
832783546063146880 384833 314957 332034 -173028
832783546081357056 385200 315310 331998 -173088
832783546099567232 385688 315745 331985 -173094
832783546117777408 385909 316101 331935 -173091
832783546135987584 386117 316289 332027 -173092
832783546154197760 386213 316342 332038 -173028
832783546172407936 386470 316598 332017 -172975
832783546190618112 386865 316990 331999 -173046
832783546208828288 387370 317491 332043 -172975
832783546227038464 387850 317967 332043 -173045
832783546245248640 387723 317914 331947 -173071
832783546263458816 387184 317398 332033 -173026
832783546281669042 386234 316506 331961 -173040
832783546299880448 385363 315595 331952 -172996
832783546318091904 384844 314981 332010 -172972
832783546336303360 384721 314815 331986 -173044
832783546354514944 384948 315091 332005 -173045
832783546372726400 385387 315502 332004 -173048
832783546390937856 385812 315918 331977 -173051
832783546409149312 386052 316205 332010 -173029
832783546427360896 386204 316304 332030 -172995
832783546445572352 386305 316476 332036 -173039
832783546463783808 386579 316698 331994 -173053
832783546481995264 387060 317270 332008 -172989
832783546500206848 387620 317735 331983 -173026
832783546518418304 387910 318051 332004 -173004
832783546536629760 387604 317765 332017 -173033
832783546554841216 386972 317143 331990 -172987
832783546573052672 386025 316190 332037 -173031
832783546591264256 385188 315383 332033 -173016
832783546609475712 384750 314903 332047 -172963
832783546627687168 384726 314831 332010 -173008
832783546645898624 385032 315114 331969 -173062
832783546664110208 385520 315556 331958 -173048
832783546682321664 385866 316014 331969 -172980
832783546700533120 386114 316251 331972 -172943
832783546718744576 386213 316358 332059 -172984
832783546736956160 386411 316511 332002 -173008
832783546755167616 386721 316842 332033 -173054
832783546773379072 387218 317381 332033 -173021
832783546791590528 387700 317782 331954 -173074
832783546809802112 387860 317957 332049 -173077
832783546828013568 387447 317564 332009 -173034
832783546846225024 386683 316773 331979 -172996
832783546864436480 385779 315870 331999 -173070
832783546882647936 385030 315101 332012 -173061
832783546900859520 384748 314814 331973 -173057
832783546919071044 384816 314922 331924 -173013
832783546937281920 385164 315299 331946 -173065
832783546955492736 385643 315752 331954 -173038
832783546973703680 386002 316037 332012 -173052
832783546991914496 386068 316262 331999 -173045
832783547010125440 386189 316375 332015 -173027
832783547028336256 386416 316485 332005 -173031
832783547046547200 386864 316927 332026 -173042
832783547064758016 387447 317546 332007 -173039
832783547082968960 387894 317999 332070 -172994
832783547101179776 387807 317942 332032 -173076
832783547119390720 387301 317428 332058 -173025
832783547137601536 386425 316570 331989 -173051
832783547155812480 385483 315680 332034 -173043
832783547174023296 384825 315091 331992 -173060
832783547192234112 384703 314848 332044 -173004
832783547210445056 384921 315045 331994 -173013
832783547228655872 385309 315462 332015 -173038
832783547246866816 385761 315888 332006 -172999
832783547265077632 386045 316121 332082 -172994
832783547283288576 386093 316282 331996 -172997
832783547301499392 386195 316437 331990 -173052
832783547319710336 386493 316648 331976 -173045
832783547337921152 387046 317131 331982 -173074
832783547356132096 387534 317607 331945 -173042
832783547374342912 387917 318016 332021 -173036
832783547392553856 387656 317794 331992 -173043
832783547410764672 387033 317129 331982 -173093
832783547428975488 386061 316211 331957 -173056
832783547447186432 385267 315427 332034 -173059
832783547465397248 384788 314890 332013 -173061
832783547483608192 384688 314795 332071 -173061
832783547501819008 385044 315175 332043 -173086
832783547520029952 385545 315622 332025 -172994
832783547538240768 385879 315959 331990 -173056
832783547556451674 386069 316192 331975 -173063
832783547574662400 386220 316327 332015 -173030
832783547592873088 386313 316390 331971 -173067
832783547611083904 386721 316737 332037 -173002
832783547629294592 387182 317273 331982 -173003
832783547647505408 387681 317780 332009 -173026
832783547665716096 387940 318018 332038 -172959
832783547683926912 387558 317696 332022 -173000
832783547702137600 386765 316816 331951 -173014
832783547720348416 385808 315956 331989 -173055
832783547738559104 385154 315248 332041 -173030
832783547756769792 384704 314812 331985 -173048
832783547774980608 384778 314920 331986 -173027
832783547793191296 385212 315281 332010 -173028
832783547811402112 385621 315759 332045 -173059
832783547829612800 385983 316116 331954 -173054
832783547847823616 386179 316238 331942 -172945
832783547866034304 386272 316378 331978 -172985
832783547884245120 386383 316519 331956 -172991
832783547902455808 386817 316878 332006 -173022
832783547920666496 387343 317456 332092 -173025
832783547938877312 387796 317939 332034 -173021
832783547957088000 387752 317936 332043 -172989
832783547975298816 387289 317455 332038 -173047
832783547993509504 386455 316547 332031 -173045
832783548011720320 385534 315580 331971 -173034
832783548029931008 384896 314983 332051 -173031
832783548048141824 384774 314929 332056 -173019
832783548066352512 384909 315085 332068 -173012
832783548084563200 385327 315478 331996 -173072
832783548102774016 385731 315923 332006 -173062
832783548120984704 386050 316177 332034 -173017
832783548139195520 386156 316299 332014 -173029
832783548157406208 386305 316391 332022 -173025
832783548175617024 386554 316681 332028 -173028
832783548193827736 386943 317064 331942 -172999
832783548212039680 387528 317598 331962 -173006
832783548230251648 387935 318020 332021 -172989
832783548248463616 387753 317830 332044 -173008
832783548266675584 387042 317261 332002 -172999
832783548284887552 386189 316338 332043 -172975
832783548303099520 385370 315473 332033 -172966
832783548321311488 384845 314902 332053 -172983
832783548339523456 384753 314829 332002 -173007
832783548357735424 385040 315114 331972 -173028
832783548375947392 385499 315574 331987 -173008
832783548394159360 385838 316004 332002 -173023
832783548412371328 386099 316222 331989 -172977
832783548430583296 386144 316271 332009 -173030
832783548448795264 386326 316366 332008 -173039
832783548467007232 386617 316740 332037 -173000
832783548485219200 387142 317256 332044 -173044
832783548503431168 387672 317774 332045 -172999
832783548521643136 387890 317959 332008 -173037
832783548539855104 387571 317666 332051 -172980
832783548558067072 386890 317050 332005 -172995
832783548576279040 385922 316043 332029 -173016
832783548594491008 385163 315286 332055 -173052
832783548612702976 384777 314827 332014 -172980
832783548630914944 384774 314895 332045 -172994
832783548649126912 385185 315271 332028 -173054
832783548667338752 385563 315724 331953 -173065
832783548685550720 385999 316066 332004 -173023
832783548703762688 386149 316232 332010 -173072
832783548721974656 386277 316366 332054 -173012
832783548740186624 386442 316482 332039 -173040
832783548758398592 386800 316913 332062 -173055
832783548776610560 387358 317425 331999 -172990
832783548794822528 387794 317894 332012 -173036
832783548813034496 387853 317920 332033 -173021
832783548831246524 387359 317501 331989 -173013
832783548849458560 386562 316622 331990 -173082
832783548867670656 385639 315730 332016 -173002
832783548885882880 384873 315084 332031 -173010
832783548904094976 384676 314837 332008 -172959
832783548922307072 384888 315034 332082 -172983
832783548940519296 385297 315398 332065 -173059
832783548958731392 385728 315881 332065 -172990
832783548976943488 386027 316161 332064 -173022
832783548995155712 386148 316301 332003 -173037
832783549013367808 386370 316553 332066 -172985
832783549031579904 386577 316695 332058 -173007
832783549049792128 386987 317140 332068 -173005
832783549068004224 387481 317635 332041 -172995
832783549086216320 387938 318042 332059 -172952
832783549104428544 387810 317871 332030 -173025
832783549122640640 387151 317330 332023 -173050
832783549140852736 386217 316400 332034 -172970
832783549159064960 385336 315479 332021 -172977
832783549177277056 384898 315012 332068 -172931
832783549195489152 384768 314897 332081 -173005
832783549213701376 385060 315144 332034 -173009
832783549231913472 385508 315585 332025 -172996
832783549250125696 385877 316021 332014 -173028
832783549268337792 386122 316202 332000 -173013
832783549286549888 386262 316315 332030 -173017
832783549304762112 386320 316397 331955 -173097
832783549322974208 386677 316796 332053 -173074
832783549341186304 387117 317272 332051 -173001
832783549359398528 387662 317767 332056 -173028
832783549377610624 387925 318013 332066 -173036
832783549395822720 387553 317731 332068 -173024
832783549414034944 386825 316968 332047 -173009
832783549432247040 385891 316060 332056 -173009
832783549450459136 385149 315255 332030 -173056
832783549468671414 384691 314874 332038 -173054
832783549486882944 384752 314939 332084 -172984
832783549505094528 385130 315249 332034 -173016
832783549523306240 385734 315845 332050 -172999
832783549541517824 386014 316122 332022 -172997
832783549559729408 386105 316267 332032 -173027
832783549577940992 386210 316319 331970 -173052
832783549596152704 386365 316536 331991 -173042
832783549614364288 386804 316853 332044 -173025
832783549632575872 387321 317398 332007 -173062
832783549650787456 387773 317806 331962 -173042
832783549668999168 387896 318010 332049 -173046
832783549687210752 387461 317512 331990 -173044
832783549705422336 386646 316718 332063 -173008
832783549723633920 385750 315822 332042 -173035
832783549741845632 385004 315055 331960 -173044
832783549760057216 384756 314847 332036 -173021
832783549778268800 384861 314963 332010 -172999
832783549796480384 385342 315367 332077 -172994
832783549814692096 385688 315794 332070 -173045
832783549832903680 385940 316060 332012 -173002
832783549851115264 386074 316268 331980 -173073
832783549869326848 386235 316308 332005 -173068
832783549887538560 386483 316521 332022 -173034
832783549905750144 386895 316975 332011 -173009
832783549923961728 387408 317500 331990 -173040
832783549942173312 387886 317952 332088 -173010
832783549960385024 387763 317883 332076 -172992
832783549978596608 387146 317241 331992 -173000
832783549996808192 386351 316444 332020 -172993
832783550015019776 385405 315541 332012 -173021
832783550033231488 384783 314928 332003 -173107
832783550051443072 384678 314823 332019 -173077
832783550069654656 384937 315031 331995 -173057
832783550087866240 385394 315521 332043 -173001
832783550106077984 385811 315913 332037 -173037
832783550124289536 386044 316223 332056 -172990
832783550142501120 386215 316359 332025 -173002
832783550160712832 386246 316442 331973 -173034
832783550178924416 386548 316741 332063 -173058
832783550197136000 387043 317261 332033 -172990
832783550215347584 387547 317688 331939 -173068
832783550233559296 387865 318021 331976 -173046
832783550251770880 387596 317757 331973 -173038
832783550269982464 386915 317055 331977 -173043
832783550288194048 386025 316159 331991 -172994
832783550306405760 385200 315289 331946 -173017
832783550324617344 384751 314941 332036 -173019
832783550342828928 384757 314876 332046 -173039
832783550361040512 385127 315233 332000 -173035
832783550379252224 385572 315656 332032 -172991
832783550397463808 385955 316006 332023 -172969
832783550415675392 386101 316171 331991 -173056
832783550433886976 386202 316274 332031 -173072
832783550452098688 386417 316482 332036 -173048
832783550470310272 386743 316848 332009 -173067
832783550488521856 387302 317357 332054 -172989
832783550506733440 387754 317908 332022 -173043
832783550524945152 387921 318006 332045 -173001
832783550543156736 387458 317626 332070 -173017
832783550561368320 386641 316714 331960 -172979
832783550579579904 385670 315785 331991 -173060
832783550597791616 385090 315129 332031 -173021
832783550616003200 384719 314823 332054 -173003
832783550634214784 384849 314908 332050 -173048
832783550652426368 385234 315268 332017 -173036
832783550670638080 385697 315705 332038 -173047
832783550688849664 385976 316046 332033 -173014
832783550707061248 386107 316245 331975 -173035
832783550725272832 386261 316322 331965 -173030
832783550743484564 386487 316582 331996 -173064
832783550761697408 386901 316950 331968 -173052
832783550779910272 387440 317490 331998 -173050
832783550798123136 387825 317968 332034 -173004
832783550816335872 387770 317926 331978 -173024
832783550834548736 387214 317343 331988 -173030
832783550852761600 386347 316421 331961 -173062
832783550870974464 385484 315541 331976 -173031
832783550889187328 384901 314961 331983 -173075
832783550907400064 384779 314783 332013 -173047
832783550925612928 384921 315080 332004 -173047
832783550943825792 385362 315435 332013 -172994
832783550962038656 385750 315792 331999 -173096
832783550980251392 386040 316155 332055 -173023
832783550998464256 386182 316243 331990 -173053
832783551016677120 386298 316380 331995 -173046
832783551034889984 386612 316697 332022 -173023
832783551053102848 387167 317245 332037 -173076
832783551071315584 387589 317713 332015 -173061
832783551089528448 387910 317970 332029 -173068
832783551107741312 387670 317781 331988 -173017
832783551125954176 387006 317131 331990 -173004
832783551144167040 386084 316202 332017 -173007
832783551162379776 385238 315360 332027 -173029
832783551180592640 384797 314826 331940 -173007
832783551198805504 384754 314867 332008 -173059
832783551217018368 385024 315131 331997 -173051
832783551235231232 385487 315529 331962 -173063
832783551253443968 385881 315974 332009 -173017
832783551271656832 386120 316249 332046 -173009
832783551289869696 386130 316323 331979 -173014
832783551308082560 386320 316466 331986 -173027
832783551326295424 386665 316766 331996 -173037
832783551344508160 387224 317330 332045 -172974
832783551362721024 387705 317824 332064 -173041
832783551380933870 387892 317982 332043 -173026
832783551399145984 387503 317610 332050 -173013
832783551417358080 386689 316745 331976 -173053
832783551435570304 385735 315858 332015 -173000
832783551453782400 385027 315153 332000 -173043
832783551471994496 384685 314809 332010 -173041
832783551490206720 384823 314930 332028 -173017
832783551508418816 385276 315440 332036 -173036
832783551526630912 385702 315751 331992 -173012
832783551544843136 385959 316093 332034 -173043
832783551563055232 386098 316243 331955 -173055
832783551581267328 386187 316229 331968 -173082
832783551599479552 386442 316534 332043 -173058
832783551617691648 386886 316935 331973 -173047
832783551635903744 387377 317410 331942 -173062
832783551654115968 387804 317900 331976 -173022
832783551672328064 387764 317863 332013 -173044
832783551690540160 387237 317366 332030 -173035
832783551708752384 386408 316540 332010 -173013
832783551726964480 385402 315620 331993 -173040
832783551745176576 384841 314973 331929 -172986
832783551763388800 384585 314740 331945 -173012
832783551781600896 384849 314963 332068 -173020
832783551799813120 385326 315455 332072 -172985
832783551818025216 385770 315874 332009 -173021
832783551836237312 386015 316089 331946 -173059
832783551854449536 386108 316232 332005 -173039
832783551872661632 386286 316416 332033 -173089
832783551890873728 386516 316606 331937 -173060
832783551909085952 386924 317068 331976 -173063
832783551927298048 387490 317573 332056 -173070
832783551945510144 387899 317978 332024 -173017
832783551963722368 387703 317773 332002 -173031
832783551981934464 387058 317132 332004 -173025
832783552000146560 386155 316204 332022 -173105
832783552018358760 385297 315411 332023 -173063
832783552036570368 384759 314929 331993 -173048
832783552054781952 384653 314769 332011 -173074
832783552072993664 385003 315163 332009 -173037
832783552091205248 385445 315525 332021 -173085
832783552109416832 385878 315961 332049 -173043
832783552127628416 386094 316163 332021 -173031
832783552145840128 386167 316291 331979 -173026
832783552164051712 386295 316394 331971 -173026
832783552182263296 386629 316712 332002 -173041
832783552200474880 387143 317304 331995 -173067
832783552218686592 387681 317817 332029 -173074
832783552236898176 387851 317993 332009 -173029
832783552255109760 387558 317644 332015 -173059
832783552273321344 386747 316877 331993 -173012
832783552291533056 385870 316003 332009 -172992
832783552309744640 385001 315168 331941 -173054
832783552327956224 384686 314807 332016 -173062
832783552346167808 384798 314919 332006 -173051
832783552364379520 385209 315311 331974 -172988
832783552382591104 385621 315772 331970 -173070
832783552400802688 385978 316038 331948 -173074
832783552419014272 386172 316185 332030 -173057
832783552437225984 386243 316330 331971 -173053
832783552455437568 386363 316483 331993 -173030
832783552473649152 386738 316876 331973 -173061
832783552491860736 387318 317387 332027 -173119
832783552510072448 387797 317905 332038 -173051
832783552528284032 387881 318025 331981 -173058
832783552546495616 387322 317522 331986 -173078
832783552564707200 386462 316623 332023 -173058
832783552582918912 385582 315670 331965 -172992
832783552601130496 384896 315016 331964 -173115
832783552619342080 384720 314796 331996 -173090
832783552637553664 384857 314993 331991 -173100
832783552655765330 385308 315446 331969 -172979
832783552673978368 385794 315838 331979 -173023
832783552692191360 385989 316221 332070 -173045
832783552710404480 386177 316264 332045 -172988
832783552728617472 386222 316393 331982 -173076
832783552746830592 386516 316616 331939 -173052
832783552765043584 387048 317081 331981 -173042
832783552783256704 387508 317612 331987 -173073
832783552801469696 387837 317906 331960 -173120
832783552819682816 387725 317871 331937 -173077
832783552837895808 387110 317199 331988 -173078
832783552856108928 386182 316279 331987 -173060
832783552874321920 385314 315479 332022 -173054
832783552892535040 384800 314930 332061 -173064
832783552910748032 384731 314867 331991 -173046
832783552928961152 384999 315099 332019 -173059
832783552947174144 385454 315601 332054 -173060
832783552965387264 385824 315952 331995 -173097
832783552983600256 386090 316258 332057 -172983
832783553001813376 386202 316308 332009 -173079
832783553020026368 386376 316495 332038 -173014
832783553038239488 386660 316727 332033 -173002
832783553056452480 387111 317281 332061 -173025
832783553074665600 387654 317744 332011 -173051
832783553092878592 387869 318035 331945 -173067
832783553111091712 387542 317678 331926 -173053
832783553129304704 386781 316956 331986 -173037
832783553147517824 385928 316057 332028 -172994
832783553165730816 385146 315321 332045 -173057
832783553183943936 384749 314814 331964 -172995
832783553202156928 384752 314855 331981 -173028
832783553220370048 385114 315282 331999 -173017
832783553238583040 385555 315684 332032 -173022
832783553256796160 385931 316038 331991 -172989
832783553275009152 386090 316243 332005 -173027
832783553293222266 386243 316366 332050 -173038
832783553311435008 386469 316574 332093 -172996
832783553329647744 386794 316867 331985 -173034
832783553347860608 387331 317476 331997 -173046
832783553366073344 387762 317845 331983 -173065
832783553384286208 387845 317952 331990 -173036
832783553402498944 387343 317501 332006 -173100
832783553420711808 386514 316677 331987 -173096
832783553438924544 385661 315707 332005 -173063
832783553457137408 384959 315044 332011 -173019
832783553475350144 384647 314796 331959 -173056
832783553493563008 384844 315044 332017 -173069
832783553511775744 385291 315408 331971 -173039
832783553529988480 385751 315895 332041 -173070
832783553548201344 386043 316060 331993 -173099
832783553566414080 386162 316244 331989 -173036
832783553584626944 386211 316331 332006 -173094
832783553602839680 386461 316597 331982 -173061
832783553621052544 386926 316983 331994 -173038
832783553639265280 387496 317606 332025 -173085
832783553657478144 387924 317990 332037 -173042
832783553675690880 387776 317858 331997 -173048
832783553693903616 387150 317237 332009 -173086
832783553712116480 386250 316314 331994 -173026
832783553730329216 385314 315440 331941 -173080
832783553748542080 384823 314949 331971 -173021
832783553766754816 384723 314829 331974 -173034
832783553784967680 384927 315134 331936 -173027
832783553803180416 385379 315591 331985 -173059
832783553821393280 385802 315969 332003 -173063
832783553839606016 386011 316159 331956 -173045
832783553857818880 386192 316338 331973 -173027
832783553876031616 386301 316387 332025 -173074
832783553894244352 386542 316672 332022 -173071
832783553912457216 387088 317192 332019 -173010
832783553930670044 387610 317712 332004 -173023
832783553948880768 387859 317934 331991 -172994
832783553967091456 387565 317700 331994 -173011
832783553985302272 386867 316965 332029 -172990
832783554003512960 385998 316096 331990 -173036
832783554021723776 385245 315281 332025 -173034
832783554039934464 384759 314845 332031 -172985
832783554058145280 384805 314909 332003 -173060
832783554076355968 385089 315207 332041 -173025
832783554094566784 385575 315681 332020 -173055
832783554112777472 385905 316003 331977 -173003
832783554130988160 386117 316200 331996 -172988
832783554149198976 386162 316284 331978 -173042
832783554167409664 386343 316500 331976 -173048
832783554185620480 386731 316845 331923 -173078
832783554203831168 387267 317382 331985 -173068
832783554222041984 387739 317936 332012 -173025
832783554240252672 387868 317996 332048 -173003
832783554258463488 387457 317561 332008 -172968
832783554276674176 386564 316665 331969 -173079
832783554294884864 385667 315770 331996 -173082
832783554313095680 384981 315123 332006 -173085
832783554331306368 384694 314832 331992 -173005
832783554349517184 384799 314993 331961 -173025
832783554367727872 385227 315364 331981 -173061
832783554385938688 385694 315822 332026 -173042
832783554404149376 385973 316099 332006 -173036
832783554422360192 386141 316265 331993 -173008
832783554440570880 386262 316426 332049 -172933
832783554458781568 386437 316592 332015 -173019
832783554476992384 386889 317002 332048 -173017
832783554495203072 387468 317432 332038 -173001
832783554513413888 387990 318067 332026 -173013
832783554531624576 387800 317909 332009 -173052
832783554549835392 387217 317338 331995 -173030
832783554568046106 386279 316447 331965 -173106
832783554586257664 385458 315543 332033 -173046
832783554604469248 384836 314923 331980 -173042
832783554622680960 384717 314828 331968 -173029
832783554640892544 384919 315097 331978 -173048
832783554659104128 385359 315524 331946 -173027
832783554677315712 385786 315971 331970 -173033
832783554695527424 386059 316216 332027 -173041
832783554713739008 386124 316299 332013 -173011
832783554731950592 386246 316410 331970 -173057
832783554750162176 386617 316728 332090 -172951
832783554768373888 387100 317136 332083 -172987
832783554786585472 387588 317639 332062 -173037
832783554804797056 387827 317974 332060 -173035
832783554823008640 387647 317790 332057 -173039
832783554841220352 386920 317078 332029 -173061
832783554859431936 385991 316166 332065 -173060
832783554877643520 385193 315334 332015 -173029
832783554895855104 384696 314898 331938 -173054
832783554914066816 384776 314891 331952 -173040
832783554932278400 385069 315175 331957 -173045
832783554950489984 385549 315649 332011 -173075
832783554968701568 385910 315998 331995 -173044
832783554986913280 386019 316185 331951 -173045
832783555005124864 386171 316267 331992 -173053
832783555023336448 386492 316553 331982 -173085
832783555041548032 386815 316836 331998 -173020
832783555059759744 387235 317336 332013 -173046
832783555077971328 387688 317829 331998 -173016
832783555096182912 387817 318031 332030 -172996
832783555114394496 387429 317593 331969 -173014
832783555132606208 386627 316805 331971 -172996
832783555150817792 385724 315817 331962 -173029
832783555169029376 384995 315076 332037 -173026
832783555187240960 384705 314828 332025 -173061
832783555205452672 384817 314952 332020 -173018
832783555223664292 385177 315358 332024 -173077
832783555241876480 385610 315769 332025 -173092
832783555260088704 385921 316065 332032 -173020
832783555278300928 386100 316225 331986 -173103
832783555296513152 386193 316322 331971 -173081
832783555314725376 386411 316566 331997 -173021
832783555332937600 386815 316926 331959 -173028
832783555351149824 387360 317470 331996 -173056
832783555369362048 387807 317962 331987 -173046
832783555387574272 387712 317922 332015 -173080
832783555405786496 387223 317379 332014 -173046
832783555423998720 386340 316513 331964 -173067
832783555442210944 385428 315599 332012 -173087
832783555460423168 384760 314964 331985 -173080
832783555478635392 384637 314798 332017 -173030
832783555496847616 384858 314978 331978 -173061
832783555515059840 385369 315419 331894 -173039
832783555533272064 385939 316016 331995 -173026
832783555551484288 386086 316125 331993 -173107
832783555569696512 386200 316247 331995 -173022
832783555587908736 386262 316368 331903 -173097
832783555606120960 386511 316626 331961 -173085
832783555624333184 386964 317107 332000 -173044
832783555642545536 387566 317681 332036 -173043
832783555660757760 387870 317942 331992 -173016
832783555678969984 387605 317728 331971 -173045
832783555697182208 386943 317068 331960 -173108
832783555715394432 386054 316191 332063 -172992
832783555733606656 385152 315269 332024 -173034
832783555751818880 384727 314894 332019 -173069
832783555770031104 384675 314773 331980 -173003
832783555788243328 384988 315105 332003 -173022
832783555806455552 385502 315560 331939 -173047
832783555824667776 385869 315933 332051 -172995
832783555842880000 385995 316095 331972 -173044
832783555861092236 386210 316306 332034 -173061
832783555879304448 386243 316408 331959 -173056
832783555897516672 386628 316715 331998 -173054
832783555915729024 387144 317238 331941 -173094
832783555933941248 387656 317741 331995 -173036
832783555952153472 387837 317956 332048 -172988
832783555970365824 387442 317615 332005 -173013
832783555988578048 386666 316820 331982 -173051
832783556006790400 385746 315925 331999 -172959
832783556025002624 385038 315121 331955 -173029
832783556043214848 384794 314868 331992 -173027
832783556061427200 384834 314923 332004 -173035
832783556079639424 385153 315274 331956 -172984
832783556097851648 385588 315760 331991 -173024
832783556116064000 385926 316044 332061 -172986
832783556134276224 386110 316265 332021 -172989
832783556152488448 386181 316315 332020 -173060
832783556170700800 386415 316522 331963 -173047
832783556188913024 386809 316881 331968 -173069
832783556207125376 387323 317447 331979 -173068
832783556225337600 387749 317808 331988 -173053
832783556243549824 387793 317867 331980 -173070
832783556261762176 387236 317346 331987 -173113
832783556279974400 386380 316492 331974 -173077
832783556298186624 385511 315631 331978 -173099
832783556316398976 384916 315004 331956 -173035
832783556334611200 384705 314835 331980 -173040
832783556352823424 384867 314947 331983 -173044
832783556371035776 385375 315453 331987 -173030
832783556389248000 385768 315828 331953 -173085
832783556407460352 386039 316099 332015 -173070
832783556425672576 386108 316262 331998 -173028
832783556443884800 386265 316340 331977 -173059
832783556462097152 386489 316634 331955 -173040
832783556480309376 386930 316997 331956 -173111
832783556498521704 387506 317601 331973 -173040
832783556516733824 387842 317926 331994 -173045
832783556534945920 387674 317794 331998 -173089
832783556553158016 387160 317258 331944 -173055
832783556571370112 386132 316225 331972 -173068
832783556589582208 385289 315430 331963 -173045
832783556607794304 384801 314877 331983 -173064
832783556626006400 384723 314854 331951 -173027
832783556644218496 385039 315131 331974 -173085
832783556662430592 385405 315548 331921 -173057
832783556680642688 385845 315983 331971 -173059
832783556698854784 385979 316168 331980 -173073
832783556717066880 386141 316279 332002 -173036
832783556735278976 386292 316350 331929 -173081
832783556753491072 386656 316734 331975 -173031
832783556771703168 387128 317217 331978 -173033
832783556789915264 387688 317744 332006 -173031
832783556808127360 387844 317946 331973 -173031
832783556826339456 387435 317554 331964 -173047
832783556844551552 386719 316904 331982 -173077
832783556862763648 385835 315951 331975 -173041
832783556880975744 385097 315135 331992 -173062
832783556899187840 384734 314817 331902 -173047
832783556917399936 384804 314850 331955 -173092
832783556935612032 385120 315241 331974 -173069
832783556953824128 385574 315675 332004 -173027
832783556972036224 385927 316029 332022 -173006
832783556990248320 386134 316256 331989 -173033
832783557008460416 386165 316283 331953 -173056
832783557026672512 386370 316498 331980 -173068
832783557044884608 386795 316895 331999 -173050
832783557063096704 387373 317460 332019 -173009
832783557081308800 387781 317919 332033 -173044
832783557099520896 387819 317926 332015 -173072
832783557117732992 387388 317458 332039 -173024
832783557135945068 386453 316632 331991 -173061
832783557154156672 385538 315702 331963 -173039
832783557172368256 384935 315061 331985 -173034
832783557190579968 384680 314789 331994 -173040
832783557208791552 384848 314987 331987 -173025
832783557227003136 385245 315391 331983 -173068
832783557245214720 385712 315820 332006 -173028
832783557263426432 386023 316106 332020 -173057
832783557281638016 386094 316231 331945 -173149
832783557299849600 386266 316339 332019 -173068
832783557318061184 386506 316638 331986 -173048
832783557336272896 386922 317024 331974 -173037
832783557354484480 387507 317609 332027 -173045
832783557372696064 387919 317912 332028 -173006
832783557390907648 387769 317772 331968 -173050
832783557409119360 387005 317096 331922 -173150
832783557427330944 386199 316333 331979 -173094
832783557445542528 385368 315445 332030 -173047
832783557463754112 384754 314900 331992 -173044
832783557481965824 384706 314822 332063 -173039
832783557500177408 384941 315088 331982 -173047
832783557518388992 385505 315577 331988 -173079
832783557536600576 385837 315939 332010 -173069
832783557554812288 386081 316217 332006 -173014
832783557573023872 386138 316151 331960 -173087
832783557591235456 386287 316368 331965 -173053
832783557609447040 386600 316699 332012 -173063
832783557627658752 387125 317223 331996 -173065
832783557645870336 387675 317730 332033 -173050
832783557664081920 387810 317915 331976 -173094
832783557682293504 387470 317660 331955 -173072
832783557700505216 386799 316937 331970 -173048
832783557718716800 385921 316077 332027 -173029
832783557736928384 385102 315215 331980 -173070
832783557755139968 384685 314797 331903 -173080
832783557773351638 384687 314827 331945 -173070
832783557791564800 385030 315213 331990 -173113
832783557809777920 385590 315614 331995 -173003
832783557827991040 385948 316029 332043 -173056
832783557846204160 386111 316212 332017 -173058
832783557864417152 386171 316349 332046 -173040
832783557882630272 386365 316529 332051 -173059
832783557900843392 386707 316894 332067 -173028
832783557919056512 387289 317418 332022 -173062
832783557937269632 387749 317887 331986 -173051
832783557955482752 387836 317947 331998 -173089
832783557973695744 387278 317477 331924 -173073
832783557991908864 386540 316654 331993 -173065
832783558010121984 385605 315796 331996 -173104
832783558028335104 385041 315176 331980 -173044
832783558046548224 384694 314874 331994 -173060
832783558064761344 384867 314924 331973 -173047
832783558082974336 385240 315352 331987 -173105
832783558101187456 385635 315748 331927 -173105
832783558119400576 386025 316084 331902 -173045
832783558137613696 386192 316248 332025 -173036
832783558155826816 386219 316383 331991 -173123
832783558174039936 386444 316582 331974 -173088
832783558192252928 386945 316988 332010 -173108
832783558210466048 387498 317577 331977 -173046
832783558228679168 387892 318049 332051 -172988
832783558246892288 387758 317814 331944 -173042
832783558265105408 387167 317284 331960 -173043
832783558283318528 386220 316342 331935 -173064
832783558301531520 385396 315496 331956 -173053
832783558319744640 384822 314894 331907 -173045
832783558337957760 384669 314702 331971 -173075
832783558356170880 384939 315065 332006 -172996
832783558374384000 385437 315578 332000 -172970
832783558392597120 385780 315943 331910 -173079
832783558410810100 386059 316202 331976 -173063
832783558429022336 386129 316249 331996 -173060
832783558447234560 386256 316403 332017 -173057
832783558465446912 386558 316689 331980 -173052
832783558483659136 387088 317147 331954 -173058
832783558501871360 387575 317641 331888 -173093
832783558520083712 387860 317971 331974 -173076
832783558538295936 387592 317631 331954 -173065
832783558556508288 386877 316974 331991 -173063
832783558574720512 385885 316063 331996 -173075
832783558592932736 385078 315190 331900 -173082
832783558611145088 384728 314747 331946 -173053
832783558629357312 384744 314879 331960 -173042
832783558647569536 385088 315201 331988 -173022
832783558665781888 385635 315695 332010 -173055
832783558683994112 385920 316052 332019 -173063
832783558702206336 386095 316212 332026 -173031
832783558720418688 386221 316345 332043 -173027
832783558738630912 386333 316451 331998 -173037
832783558756843264 386691 316848 331957 -173026
832783558775055488 387224 317332 332005 -172995
832783558793267712 387712 317801 331943 -173099
832783558811480064 387831 317910 331970 -173051
832783558829692288 387390 317467 331978 -173035
832783558847904512 386632 316731 332015 -173007
832783558866116864 385669 315769 331943 -173037
832783558884329088 385016 315066 332010 -173076
832783558902541312 384739 314844 332058 -173033
832783558920753664 384852 314998 332039 -173120
832783558938965888 385239 315366 332048 -173037
832783558957178240 385686 315773 332010 -173067
832783558975390464 385958 316076 332028 -173131
832783558993602688 386113 316191 332004 -173091
832783559011815040 386266 316330 331968 -173063
832783559030027264 386495 316599 332040 -173073
832783559048239568 387052 317102 332067 -173045
832783559066452736 387519 317581 332026 -173076
832783559084665856 387909 317932 331938 -173085
832783559102878976 387834 317826 331968 -173080
832783559121092224 387251 317334 331986 -173078
832783559139305344 386277 316443 331964 -173065
832783559157518464 385421 315547 332014 -173046
832783559175731584 384835 315001 331970 -173059
832783559193944704 384683 314875 332002 -173011
832783559212157824 384873 315019 332015 -173081
832783559230371072 385346 315489 332006 -173126
832783559248584192 385740 315940 332005 -173091
832783559266797312 386117 316171 331983 -173050
832783559285010432 386201 316265 331954 -173098
832783559303223552 386318 316410 332011 -173081
832783559321436672 386551 316671 331963 -173064
832783559339649920 387073 317148 332048 -172990
832783559357863040 387584 317673 331960 -173059
832783559376076160 387861 317919 331991 -173056
832783559394289280 387606 317712 331992 -173037
832783559412502400 386941 317029 331947 -173053
832783559430715648 385978 316176 331993 -173055
832783559448928768 385194 315341 331989 -173095
832783559467141888 384722 314833 331968 -173079
832783559485355008 384699 314858 331987 -173061
832783559503568128 385073 315197 331986 -173025
832783559521781248 385512 315635 331978 -173047
832783559539994496 385853 316011 332000 -173037
832783559558207616 386059 316159 331956 -173051
832783559576420736 386212 316309 331978 -173051
832783559594633856 386296 316414 331952 -173074
832783559612846976 386718 316785 331958 -173054
832783559631060096 387259 317354 332022 -173011
832783559649273344 387786 317874 332013 -173027
832783559667486464 387891 317982 331977 -173074
832783559685699554 387445 317574 331971 -173051
832783559703911040 386681 316862 332031 -173038
832783559722122496 385659 315892 331960 -173087
832783559740333952 385004 315116 332034 -173037
832783559758545536 384628 314735 331946 -173095
832783559776756992 384715 314961 331961 -173104
832783559794968448 385177 315387 331998 -173020
832783559813179904 385630 315772 331985 -173047
832783559831391488 385954 316066 331983 -173075
832783559849602944 386075 316243 331971 -173072
832783559867814400 386164 316370 331994 -173058
832783559886025856 386389 316556 331993 -173021
832783559904237440 386810 316928 331961 -173021
832783559922448896 387316 317467 331982 -173052
832783559940660352 387803 317861 331979 -173014
832783559958871808 387802 317864 332004 -173043
832783559977083264 387244 317340 331930 -173050
832783559995294848 386424 316490 331974 -173025
832783560013506304 385558 315736 331979 -173090
832783560031717760 384785 315021 332022 -173024
832783560049929216 384669 314822 331977 -173002
832783560068140800 384947 315083 332021 -173017
832783560086352256 385318 315557 332022 -173038
832783560104563712 385802 315895 332026 -173018
832783560122775168 386104 316131 331988 -172993
832783560140986752 386152 316315 331990 -173033
832783560159198208 386275 316403 332038 -173046
832783560177409664 386586 316726 332034 -173024
832783560195621120 387011 317137 332045 -173062
832783560213832576 387596 317649 332031 -173056
832783560232044160 387899 317980 332026 -173065
832783560250255616 387671 317767 331997 -173073
832783560268467072 386960 317110 332021 -173052
832783560286678528 386049 316171 331943 -173052
832783560304890112 385259 315413 331934 -173060
832783560323101544 384719 314954 332045 -173110
832783560341313792 384733 314772 331975 -173092
832783560359526016 385101 315205 331987 -173034
832783560377738112 385547 315624 332026 -173056
832783560395950336 385891 315965 331965 -173057
832783560414162560 386073 316140 331987 -173088
832783560432374656 386165 316245 331943 -173017
832783560450586880 386272 316424 331980 -173064
832783560468799104 386609 316727 331937 -173081
832783560487011200 387194 317273 332024 -173081
832783560505223424 387722 317797 331995 -173046
832783560523435648 387845 317946 331976 -173097
832783560541647872 387553 317612 332032 -172971
832783560559859968 386675 316822 331979 -173038
832783560578072192 385753 315887 331975 -173018
832783560596284416 385114 315152 331944 -173027
832783560614496512 384676 314778 331959 -173041
832783560632708736 384730 314875 332016 -173002
832783560650920960 385166 315284 332020 -173019
832783560669133056 385627 315755 331956 -173014
832783560687345280 385961 316128 331970 -173007
832783560705557504 386113 316292 331969 -173027
832783560723769600 386164 316312 331951 -173072
832783560741981824 386357 316500 332012 -173048
832783560760194048 386834 316941 331991 -173044
832783560778406144 387365 317456 331970 -173024
832783560796618368 387813 317888 331953 -173057
832783560814830592 387784 317914 331998 -173041
832783560833042688 387279 317398 331990 -173053
832783560851254912 386423 316534 332020 -173037
832783560869467136 385555 315687 331988 -173023
832783560887679232 384921 315013 331963 -173025
832783560905891456 384681 314831 332037 -173034
832783560924103680 384923 314987 332021 -173087
832783560942315904 385258 315395 332016 -173062
832783560960527964 385751 315879 332034 -173047
832783560978739456 386047 316195 332098 -173019
832783560996950912 386115 316221 331929 -173033
832783561015162368 386235 316365 331942 -173053
832783561033373952 386586 316732 331954 -173052
832783561051585408 387005 317096 332013 -173025
832783561069796864 387565 317649 332013 -173031
832783561088008320 387851 318002 332006 -173011
832783561106219904 387724 317851 332003 -172976
832783561124431360 386997 317154 332004 -173007
832783561142642816 386192 316246 332002 -173037
832783561160854272 385290 315389 331973 -173046
832783561179065856 384766 314854 332016 -173088
832783561197277312 384718 314807 332011 -173057
832783561215488768 384987 315085 331985 -173060
832783561233700224 385418 315578 332008 -173100
832783561251911680 385865 315913 331996 -173053
832783561270123264 386054 316170 332007 -173034
832783561288334720 386149 316283 331960 -173004
832783561306546176 386319 316407 331918 -173005
832783561324757632 386597 316728 331961 -173038
832783561342969216 387155 317241 331971 -173028
832783561361180672 387738 317843 332094 -173009
832783561379392128 387869 317943 331954 -173002
832783561397603584 387509 317684 331988 -172971
832783561415815168 386715 316930 331992 -173018
832783561434026624 385880 315997 332006 -173024
832783561452238080 385085 315207 332021 -173026
832783561470449536 384717 314816 332027 -173044
832783561488660992 384796 314946 332059 -172986
832783561506872576 385234 315328 332073 -173010
832783561525084032 385585 315750 332027 -173091
832783561543295488 386042 316229 332042 -173034
832783561561506944 386147 316241 331957 -173028
832783561579718528 386235 316351 331981 -172995
832783561597929964 386397 316586 331979 -173013
832783561616140416 386812 316918 331986 -173004
832783561634350848 387331 317417 331993 -173046
832783561652561280 387779 317872 331993 -173062
832783561670771712 387800 317955 332003 -173010
832783561688982144 387262 317469 332016 -172973
832783561707192576 386454 316599 331933 -173069
832783561725403008 385572 315725 331980 -173057
832783561743613440 384983 315054 332005 -173034
832783561761823872 384692 314844 332007 -173039
832783561780034432 384770 314922 331958 -173042
832783561798244864 385305 315451 332003 -173023
832783561816455296 385681 315805 331963 -173029
832783561834665728 386007 316116 331991 -173048
832783561852876160 386183 316302 332006 -173087
832783561871086592 386235 316324 331958 -173025
832783561889297024 386440 316573 331933 -173081
832783561907507456 386982 317023 331943 -173046
832783561925717888 387484 317569 332012 -173012
832783561943928320 387813 317947 331934 -173080
832783561962138752 387724 317841 331979 -173077
832783561980349184 387139 317231 332027 -172994
832783561998559616 386338 316394 332022 -173050
832783562016770048 385415 315493 332014 -173060
832783562034980480 384840 314954 331990 -173045
832783562053190912 384732 314898 331957 -173026
832783562071401344 384985 315086 331983 -173109
832783562089611904 385447 315514 331962 -173069
832783562107822336 385860 315953 332063 -172954
832783562126032768 386044 316174 332043 -172997
832783562144243200 386254 316262 332044 -173004
832783562162453632 386336 316395 332013 -172989
832783562180664064 386599 316777 332044 -173017
832783562198874496 387169 317239 332026 -172982
832783562217084928 387672 317762 332088 -173002
832783562235295346 387919 317988 332015 -173033
832783562253507712 387566 317662 332031 -173051
832783562271720064 386838 316942 332043 -173053
832783562289932288 385904 316061 332046 -173019
832783562308144640 385095 315266 332036 -173074
832783562326356992 384725 314868 332038 -173007
832783562344569344 384747 314855 332005 -173008
832783562362781568 385112 315252 332005 -173025
832783562380993920 385575 315727 331942 -173007
832783562399206272 385948 316055 331975 -173020
832783562417418496 386113 316231 331936 -173067
832783562435630848 386205 316291 331997 -173071
832783562453843200 386407 316497 331977 -173055
832783562472055424 386728 316845 332022 -173096
832783562490267776 387217 317324 331921 -173116
832783562508480128 387830 318005 331911 -173075
832783562526692480 387922 317985 331986 -173048
832783562544904704 387441 317509 332004 -173007
832783562563117056 386540 316676 331959 -173121
832783562581329408 385616 315745 332029 -173072
832783562599541632 384943 315096 332013 -173047
832783562617753984 384654 314738 331964 -173111
832783562635966336 384815 315003 332036 -173060
832783562654178560 385187 315356 331892 -173090
832783562672390912 385735 315799 332005 -173045
832783562690603264 385978 316050 332015 -173090
832783562708815616 386088 316177 331955 -173056
832783562727027840 386273 316409 332037 -173005
832783562745240192 386466 316619 331970 -173006
832783562763452544 386915 317087 331995 -173038
832783562781664768 387423 317500 331976 -173077
832783562799877120 387843 317988 331982 -173051
832783562818089472 387743 317880 332000 -173030
832783562836301696 387136 317274 331987 -173031
832783562854514048 386272 316372 332022 -173054
832783562872726330 385369 315508 331979 -173123
832783562890938752 384788 314947 331996 -173054
832783562909151232 384660 314849 331987 -173068
832783562927363712 384972 315067 331929 -173012
832783562945576192 385357 315494 331963 -172993
832783562963788672 385786 315909 331973 -173079
832783562982001152 386047 316186 332017 -173012
832783563000213632 386223 316310 331999 -173064
832783563018426112 386478 316481 332000 -173045
832783563036638720 386700 316786 332075 -173050
832783563054851200 387101 317199 332039 -173065
832783563073063680 387614 317766 332025 -173016
832783563091276160 387852 317974 331941 -173059
832783563109488640 387595 317726 331934 -173001
832783563127701120 386869 317013 331939 -173051
832783563145913600 385974 316107 331993 -173019
832783563164126080 385233 315329 331964 -173014
832783563182338560 384785 314891 331933 -173037
832783563200551040 384779 314919 331952 -173023
832783563218763520 385079 315183 331979 -173076
832783563236976000 385576 315692 332011 -173004
832783563255188480 385857 316014 331925 -173088
832783563273400960 386163 316262 331963 -173050
832783563291613440 386178 316322 331970 -173057
832783563309826048 386355 316459 331960 -173045
832783563328038528 386707 316806 331929 -173056
832783563346251008 387282 317341 331956 -173038
832783563364463488 387773 317821 331988 -173040
832783563382675968 387868 318004 332015 -173069
832783563400888448 387365 317520 332008 -173027
832783563419100928 386543 316736 331968 -173079
832783563437313408 385649 315875 332037 -173007
832783563455525888 384975 315163 332003 -173025
832783563473738368 384631 314852 331919 -173039
832783563491950848 384769 314966 331934 -173086
832783563510163428 385233 315396 331991 -173042
832783563528375040 385673 315778 331939 -173088
832783563546586624 385968 316046 331919 -173070
832783563564798336 386068 316187 331927 -173081
832783563583009920 386199 316328 331917 -173131
832783563601221504 386438 316579 331964 -173027
832783563619433088 386870 316995 331992 -173033
832783563637644800 387421 317513 331947 -173059
832783563655856384 387856 317971 331961 -173041
832783563674067968 387775 317882 331985 -173016
832783563692279552 387184 317350 332016 -173062
832783563710491264 386312 316428 332007 -173030
832783563728702848 385419 315564 332037 -173048
832783563746914432 384847 314987 332020 -173059
832783563765126016 384645 314823 332003 -173014
832783563783337728 384939 315071 332079 -172969
832783563801549312 385341 315519 331990 -173009
832783563819760896 385784 315906 331999 -172992
832783563837972480 386074 316187 332008 -173001
832783563856184192 386121 316277 331959 -173023
832783563874395776 386244 316374 331955 -173009
832783563892607360 386522 316681 331929 -173055
832783563910818944 386995 317137 331970 -173070
832783563929030656 387525 317649 331929 -173029
832783563947242240 387833 317998 331957 -173043
832783563965453824 387568 317747 331985 -173072
832783563983665408 386915 317074 331976 -173074
832783564001877120 386017 316122 331928 -173047
832783564020088704 385123 315306 331946 -173089
832783564038300288 384806 314882 331921 -173107
832783564056511872 384776 314897 332027 -173080
832783564074723584 385050 315112 331956 -173074
832783564092935168 385522 315620 332016 -173035
832783564111146752 385853 315960 331970 -173047
832783564129358336 386062 316144 331961 -173072
832783564147570008 386177 316281 331988 -173057
832783564165782528 386387 316504 332016 -173064
832783564183995008 386698 316817 331929 -173078
832783564202207488 387195 317329 331988 -173063
832783564220419968 387748 317838 331998 -172993
832783564238632448 387864 317923 332019 -173043
832783564256844928 387466 317563 331943 -173068
832783564275057408 386700 316748 331985 -173048
832783564293269888 385732 315829 331936 -173069
832783564311482496 385028 315103 331959 -173077
832783564329694976 384636 314774 331913 -173056
832783564347907456 384783 314913 331946 -173069
832783564366119936 385124 315223 331908 -173072
832783564384332416 385603 315760 331970 -173014
832783564402544896 385926 316066 331968 -173063
832783564420757376 386116 316214 331983 -173054
832783564438969856 386219 316356 331982 -173076
832783564457182336 386424 316473 331980 -173085
832783564475394816 386851 316911 331980 -173100
832783564493607296 387344 317469 332028 -173072
832783564511819776 387842 317912 331985 -173022
832783564530032256 387843 317894 331956 -173073
832783564548244736 387393 317523 331978 -173002
832783564566457216 386443 316578 331957 -173047
832783564584669824 385507 315688 331970 -173063
832783564602882304 384867 315012 331922 -173091
832783564621094784 384641 314824 332013 -173093
832783564639307264 384889 315055 331923 -173099
832783564657519744 385362 315509 331958 -173111
832783564675732224 385819 315920 332039 -173048
832783564693944704 385992 316160 331973 -173063
832783564712157184 386094 316302 331957 -173097
832783564730369664 386275 316313 331924 -173011
832783564748582144 386530 316673 331988 -173068
832783564766794624 386989 317124 331972 -173004
832783564785007106 387479 317652 331951 -173072
832783564803217920 387926 317956 331978 -173067
832783564821428736 387679 317797 332008 -173136
832783564839639552 386968 317101 331893 -173081
832783564857850240 386090 316236 331974 -173065
832783564876061056 385200 315386 331930 -173042
832783564894271872 384734 314867 331992 -173009
832783564912482688 384694 314792 331981 -173081
832783564930693376 384978 315123 331950 -173056
832783564948904192 385505 315550 332019 -173090
832783564967115008 385895 315931 332032 -173006
832783564985325824 386119 316258 332028 -173028
832783565003536640 386347 316427 332014 -173020
832783565021747328 386401 316500 332023 -173023
832783565039958144 386676 316760 332002 -173002
832783565058168960 387138 317330 332010 -173011
832783565076379776 387709 317784 331964 -173033
832783565094590464 387891 318005 332013 -173043
832783565112801280 387494 317690 332024 -173051
832783565131012096 386712 316889 331982 -173067
832783565149222912 385829 315946 331969 -173048
832783565167433728 385029 315174 331950 -173090
832783565185644416 384667 314846 331952 -173045
832783565203855232 384795 314925 331978 -173039
832783565222066048 385155 315347 332027 -173047
832783565240276864 385612 315802 332006 -173053
832783565258487680 385975 316091 332045 -173040
832783565276698368 386184 316251 332016 -173050
832783565294909184 386248 316369 332053 -173011
832783565313120000 386401 316502 331974 -173042
832783565331330816 386798 316955 332043 -173048
832783565349541504 387353 317423 332012 -173019
832783565367752320 387715 317859 331929 -173039
832783565385963136 387751 317918 331969 -173082
832783565404173952 387259 317465 332063 -173048
832783565422384682 386482 316614 332036 -173040
832783565440597120 385570 315691 331957 -173013
832783565458809600 384887 315084 332012 -173098
832783565477021952 384641 314806 331937 -173055
832783565495234432 384922 315012 331970 -173046
832783565513446912 385427 315665 332021 -173011
832783565531659392 385817 315968 332006 -173034
832783565549871744 386081 316161 332014 -173088
832783565568084224 386138 316266 332031 -173073
832783565586296704 386339 316430 331974 -173079
832783565604509184 386548 316648 331990 -173036
832783565622721536 386974 317043 331955 -173063
832783565640934016 387511 317619 331973 -173050
832783565659146496 387940 317965 332030 -173054
832783565677358848 387688 317786 332025 -173071
832783565695571328 387075 317221 332053 -173034
832783565713783808 386245 316316 332059 -173030
832783565731996288 385363 315427 332031 -173018
832783565750208640 384767 314991 331985 -173034
832783565768421120 384701 314860 332007 -173081
832783565786633600 384986 315045 331907 -173058
832783565804846080 385427 315570 331982 -173024
832783565823058432 385848 316054 331961 -173050
832783565841270912 386050 316182 331970 -173086
832783565859483392 386199 316295 332020 -173069
832783565877695744 386375 316459 331994 -173029
832783565895908224 386622 316720 331958 -173048
832783565914120704 387141 317250 331991 -173042
832783565932333184 387656 317752 331938 -173035
832783565950545536 387894 317957 331979 -173040
832783565968758016 387554 317652 332019 -173089
832783565986970496 386710 316898 331992 -173090
832783566005182976 385865 315974 331955 -173051
832783566023395328 385183 315180 332016 -173076
832783566041607808 384779 314784 331954 -173024
832783566059820256 384790 314898 331947 -173110
832783566078033152 385132 315260 331990 -173076
832783566096246016 385559 315722 332026 -173043
832783566114458880 385920 316065 331986 -173039
832783566132671744 386061 316260 332010 -173016
832783566150884736 386081 316283 331938 -173054
832783566169097600 386314 316505 331997 -173061
832783566187310464 386779 316905 331999 -173036
832783566205523328 387332 317424 331955 -173014
832783566223736192 387785 317876 331992 -173073
832783566241949056 387890 317902 331997 -173051
832783566260161920 387328 317453 331992 -173051
832783566278374784 386455 316636 331998 -173057
832783566296587776 385619 315763 332050 -173017
832783566314800640 384915 315043 331970 -173056
832783566333013504 384735 314859 331987 -173008
832783566351226368 384868 315001 331982 -172978
832783566369439232 385325 315414 332064 -172997
832783566387652096 385761 315875 332003 -173008
832783566405864960 386023 316183 332015 -173013
832783566424077952 386193 316205 332014 -172986
832783566442290816 386289 316321 331939 -173039
832783566460503680 386509 316590 332002 -173057
832783566478716544 386919 317047 331958 -173098
832783566496929408 387506 317599 331987 -173089
832783566515142272 387942 318016 332032 -172989
832783566533355136 387757 317858 331986 -173012
832783566551568000 387144 317280 332029 -172993
832783566569780992 386271 316387 332047 -172974
832783566587993856 385396 315530 332000 -172966
832783566606206720 384854 314936 331994 -173021
832783566624419584 384643 314855 331969 -173057
832783566642632448 385046 315144 332043 -173024
832783566660845312 385477 315589 332023 -173000
832783566679058176 385809 315978 332003 -173035
832783566697271088 386057 316240 332053 -172983
832783566715484160 386125 316280 332017 -173057
832783566733697280 386265 316378 331989 -173071
832783566751910400 386637 316718 332011 -173043
832783566770123648 387107 317188 332002 -173042
832783566788336768 387618 317695 331992 -173013
832783566806549888 387837 317980 332012 -173014
832783566824763008 387527 317653 332003 -172999
832783566842976128 386860 317008 332031 -173010
832783566861189248 385886 316050 331936 -173033
832783566879402496 385154 315256 332011 -173042
832783566897615616 384730 314866 332007 -173069
832783566915828736 384749 314832 332013 -173061
832783566934041856 385114 315205 331986 -173041
832783566952254976 385494 315673 331977 -173006
832783566970468096 385853 316077 331955 -173048
832783566988681344 386088 316189 331968 -173058
832783567006894464 386192 316342 331974 -173053
832783567025107584 386346 316468 331944 -173074
832783567043320704 386683 316874 331977 -173087
832783567061533824 387220 317358 331985 -173063
832783567079747072 387702 317887 331973 -173062
832783567097960192 387844 317933 331960 -173067
832783567116173312 387384 317443 331958 -173105
832783567134386432 386632 316683 332045 -173018
832783567152599552 385661 315732 331920 -173035
832783567170812672 385019 315047 331950 -173018
832783567189025920 384747 314800 331980 -173010
832783567207239040 384823 314953 331976 -173060
832783567225452160 385268 315349 331979 -173078
832783567243665280 385614 315769 331948 -173058
832783567261878400 386004 316085 331964 -173085
832783567280091520 386099 316247 332004 -173061
832783567298304768 386228 316415 331999 -173037
832783567316517888 386494 316585 331999 -173046
832783567334731074 386871 316992 332033 -173011
832783567352943488 387455 317516 332004 -173022
832783567371155840 387856 317923 332026 -173040
832783567389368064 387748 317893 332044 -173020
832783567407580416 387100 317270 331941 -173068
832783567425792768 386254 316435 332057 -173047
832783567444005120 385371 315507 331998 -173089
832783567462217344 384886 315014 332034 -173048
832783567480429696 384708 314775 331977 -173104
832783567498642048 385096 315169 332047 -173010
832783567516854272 385424 315476 331943 -173085
832783567535066624 385814 315953 331979 -173108
832783567553278976 386017 316177 331930 -173100
832783567571491200 386163 316293 331973 -173053
832783567589703552 386324 316362 331943 -173092
832783567607915904 386616 316687 331999 -173003
832783567626128256 387045 317177 332033 -173076
832783567644340480 387629 317686 332011 -173041
832783567662552832 387889 317978 332010 -173041
832783567680765184 387566 317704 331978 -173069
832783567698977408 386911 316960 331913 -173050
832783567717189760 386005 316072 331925 -173046
832783567735402112 385170 315257 331928 -173092
832783567753614336 384701 314841 331948 -173060
832783567771826688 384735 314858 331960 -173034
832783567790039040 385046 315184 332032 -173082
832783567808251392 385504 315663 331975 -173136
832783567826463616 385839 316005 331962 -173089
832783567844675968 386064 316186 331990 -173054
832783567862888320 386236 316300 332028 -173065
832783567881100544 386376 316443 331999 -173069
832783567899312896 386743 316795 332004 -173012
832783567917525248 387238 317330 332016 -173008
832783567935737472 387706 317846 331954 -173018
832783567953949824 387822 317998 331976 -173060
832783567972162058 387450 317624 331944 -173022
832783567990375168 386611 316801 331971 -173031
832783568008588288 385779 315975 332051 -173047
832783568026801408 385001 315134 331945 -173059
832783568045014528 384708 314759 332011 -173053
832783568063227520 384867 314891 331981 -173081
832783568081440640 385262 315274 331990 -173013
832783568099653760 385703 315749 332007 -173057
832783568117866880 385974 316107 332032 -173055
832783568136080000 386084 316267 332045 -173048
832783568154293120 386252 316343 331977 -173035
832783568172506112 386416 316579 331982 -173040
832783568190719232 386855 316947 331962 -173060
832783568208932352 387382 317493 331988 -172991
832783568227145472 387758 317909 331950 -173047
832783568245358592 387775 317892 331951 -173058
832783568263571712 387173 317331 331979 -173046
832783568281784704 386351 316442 331970 -173033
832783568299997824 385458 315613 332009 -173034
832783568318210944 384872 314987 331987 -172994
832783568336424064 384669 314881 331968 -173022
832783568354637184 384974 315060 331959 -173043
832783568372850304 385369 315542 331997 -173047
832783568391063296 385890 315992 332028 -173004
832783568409276416 386113 316221 331991 -172985
832783568427489536 386230 316348 332067 -173016
832783568445702656 386332 316430 332026 -173019
832783568463915776 386583 316665 331994 -173022
832783568482128896 387050 317149 331981 -173026
832783568500341888 387572 317676 332061 -173063
832783568518555008 388036 318097 331970 -173048
832783568536768128 387729 317853 331990 -173039
832783568554981248 386987 317131 331989 -173019
832783568573194368 386093 316170 332013 -173076
832783568591407488 385179 315330 331952 -173023
832783568609620520 384754 314871 331996 -173089
832783568627832320 384759 314855 332003 -173022
832783568646044160 385086 315139 332002 -173033
832783568664256128 385511 315626 331924 -173045
832783568682467968 385916 316003 331944 -173038
832783568700679808 386114 316212 331958 -173069
832783568718891648 386158 316263 331948 -173058
832783568737103616 386390 316428 332002 -173007
832783568755315456 386712 316785 331975 -173053
832783568773527296 387197 317255 331971 -173052
832783568791739264 387660 317813 331927 -173086
832783568809951104 387793 317960 331974 -173033
832783568828162944 387472 317552 331955 -173042
832783568846374912 386641 316769 331901 -173004
832783568864586752 385733 315884 331969 -173063
832783568882798592 385005 315151 331961 -173093
832783568901010432 384681 314865 331900 -173009
832783568919222400 384844 314874 331916 -173057
832783568937434240 385229 315277 331908 -173072
832783568955646080 385706 315754 331930 -173000
832783568973858048 386013 316088 331994 -173012
832783568992069888 386144 316172 331908 -173055
832783569010281728 386258 316334 331979 -173042
832783569028493696 386608 316720 331982 -172986
832783569046705536 386971 317036 331989 -173053
832783569064917376 387354 317516 331927 -173038
832783569083129216 387864 317927 331951 -173054
832783569101341184 387779 317842 332032 -173059
832783569119553024 387311 317428 331956 -173057
832783569137764864 386391 316448 331914 -173107
832783569155976832 385493 315548 331944 -173075
832783569174188672 384857 314928 331977 -173086
832783569192400512 384715 314771 331974 -173058
832783569210612480 384924 314942 331940 -173042
832783569228824320 385368 315362 331924 -173091
832783569247036254 385761 315847 331940 -173079
832783569265248768 385976 316159 331961 -173060
832783569283461248 386116 316268 331958 -173051
832783569301673728 386241 316389 331947 -173028
832783569319886208 386546 316615 331974 -173054
832783569338098688 386970 317031 331973 -173092
832783569356311168 387538 317653 331961 -173080
832783569374523648 387838 317911 331937 -173065
832783569392736128 387692 317763 331936 -173044
832783569410948736 387021 317117 331947 -173088
832783569429161216 386148 316226 331948 -173021
832783569447373696 385234 315334 331947 -173020
832783569465586176 384803 314951 331994 -173062
832783569483798656 384719 314873 331956 -173132
832783569502011136 385030 315142 331978 -173131
832783569520223616 385544 315660 331998 -172997
832783569538436096 385947 315967 331978 -173004
832783569556648576 386097 316152 332008 -173039
832783569574861056 386176 316241 331965 -173056
832783569593073536 386332 316473 332002 -173044
832783569611286016 386653 316707 331950 -173055
832783569629498496 387119 317266 332011 -173051
832783569647710976 387603 317739 331991 -173091
832783569665923456 387856 317904 331985 -173059
832783569684136064 387524 317592 331977 -173079
832783569702348544 386719 316877 331937 -173074
832783569720561024 385768 315931 331979 -173064
832783569738773504 385018 315183 331935 -173057
832783569756985984 384708 314847 331930 -173031
832783569775198464 384747 314890 331913 -173059
832783569793410944 385157 315353 331955 -173069
832783569811623424 385700 315728 331948 -173077
832783569829835904 385948 316048 332005 -173100
832783569848048384 386103 316234 332022 -173089
832783569866260864 386151 316257 331928 -173080
832783569884473352 386377 316540 331946 -173034
832783569902685824 386770 316950 331996 -173022
832783569920898304 387313 317453 332015 -173045
832783569939110656 387757 317898 332044 -173126
832783569957323136 387817 317932 332059 -173043
832783569975535616 387333 317448 331994 -173018
832783569993748096 386582 316700 331951 -173043
832783570011960448 385644 315762 332016 -172994
832783570030172928 384940 315079 332028 -173065
832783570048385408 384615 314772 331942 -173081
832783570066597888 384830 314977 331962 -173061
832783570084810240 385307 315436 332009 -173056
832783570103022720 385753 315883 332057 -173060
832783570121235200 386041 316126 332024 -173050
832783570139447552 386175 316258 332013 -173017
832783570157660032 386195 316273 331925 -173076
832783570175872512 386539 316575 331965 -173057
832783570194084992 386943 317022 332000 -173054
832783570212297344 387500 317595 331974 -173055
832783570230509824 387850 317994 331994 -173028
832783570248722304 387775 317851 332022 -173014
832783570266934656 387102 317182 331975 -173013
832783570285147136 386152 316274 331978 -173021
832783570303359616 385326 315393 331952 -173047
832783570321572096 384777 314917 331917 -173050
832783570339784448 384747 314796 331970 -173013
832783570357996928 385100 315051 331958 -173045
832783570376209408 385489 315520 331975 -173038
832783570394421888 385857 315922 331978 -173050
832783570412634240 386052 316128 331942 -173078
832783570430846720 386169 316174 331931 -173092
832783570449059200 386351 316398 331973 -173060
832783570467271552 386692 316750 332019 -173085
832783570485484032 387145 317298 332032 -172997
832783570503696512 387806 317928 332021 -173029
832783570521908916 387954 318016 331965 -173075
832783570540120576 387552 317664 331988 -173144
832783570558332288 386815 316963 332016 -173112
832783570576543872 385900 316046 332008 -173067
832783570594755584 385109 315205 331991 -173074
832783570612967168 384687 314809 331998 -173111
832783570631178880 384799 314866 332011 -173017
832783570649390592 385108 315257 331925 -173073
832783570667602176 385583 315755 332015 -173002
832783570685813888 385948 316093 332030 -173029
832783570704025472 386126 316229 332027 -173033
832783570722237184 386175 316355 332044 -173115
832783570740448896 386364 316527 332008 -173092
832783570758660480 386858 316892 332011 -173040
832783570776872192 387369 317404 331957 -173039
832783570795083776 387868 317976 332010 -173054
832783570813295488 387847 317946 331986 -173065
832783570831507200 387389 317485 331986 -173016
832783570849718784 386514 316646 331961 -173078
832783570867930496 385630 315720 331970 -173119
832783570886142080 384881 315008 331955 -173065
