TIMESTAMP PPG0 PPG1 PPG2 AMBIENT
832783704597595008 370614 308101 331723 -173059
832783704615776768 370594 308140 331696 -173021
832783704633958656 370582 308157 331647 -173067
832783704652140416 370622 308170 331658 -173047
832783704670322304 370663 308174 331620 -173063
832783704688504064 370590 308139 331588 -173035
832783704706685952 370555 308133 331611 -173089
832783704724867712 370627 308213 331653 -173053
832783704743049600 370677 308240 331677 -173103
832783704761231360 370650 308209 331695 -173042
832783704779413248 370644 308208 331709 -172972
832783704797595008 370587 308169 331634 -173031
832783704815776768 370612 308107 331673 -173059
832783704833958656 370587 308131 331672 -173070
832783704852140416 370650 308119 331651 -173100
832783704870322304 370614 308134 331611 -173113
832783704888504064 370659 308144 331641 -173055
832783704906685952 370646 308161 331620 -173026
832783704924867712 370619 308203 331658 -173030
832783704943049600 370584 308171 331669 -173081
832783704961231360 370637 308140 331738 -173018
832783704979413248 370657 308170 331729 -173051
832783704997595008 370597 308177 331613 -173050
832783705015776768 370642 308167 331636 -173002
832783705033958656 370591 308117 331630 -173098
832783705052140416 370615 308168 331663 -173088
832783705070322304 370599 308157 331706 -173075
832783705088504064 370635 308226 331704 -173059
832783705106685952 370661 308161 331670 -173082
832783705124867712 370584 308109 331660 -173100
832783705143049600 370572 308128 331572 -173041
832783705161231360 370588 308075 331606 -173028
832783705179413248 370570 308194 331667 -173078
832783705197595008 370652 308150 331620 -173094
832783705215776768 370595 308168 331656 -173045
832783705233958656 370618 308149 331675 -173047
832783705252140416 370602 308179 331663 -173041
832783705270322304 370599 308151 331699 -173040
832783705288504064 370625 308180 331652 -173033
832783705306685952 370646 308138 331660 -173056
832783705324867712 370628 308204 331668 -173057
832783705343049600 370581 308145 331633 -173104
832783705361231360 370592 308098 331649 -173069
832783705379413248 370603 308110 331653 -173023
832783705397595008 370639 308163 331660 -173045
832783705415776768 370625 308158 331660 -173033
832783705433958656 370633 308200 331733 -173040
832783705452140416 370595 308144 331695 -173024
832783705470322304 370547 308148 331639 -173067
832783705488504064 370605 308178 331724 -173013
832783705506685952 370611 308133 331661 -173030
832783705524867702 370625 308112 331662 -173003
832783705543079936 370607 308103 331643 -173108
832783705561292160 370628 308135 331652 -173040
832783705579504384 370593 308103 331662 -173099
832783705597716736 370599 308123 331682 -173069
832783705615928960 370557 308120 331703 -173072
832783705634141184 370539 308124 331696 -173108
832783705652353408 370601 308102 331667 -173056
832783705670565760 370569 308136 331617 -173096
832783705688777984 370589 308111 331630 -173062
832783705706990208 370644 308190 331652 -173045
832783705725202432 370611 308132 331638 -172986
832783705743414656 370616 308158 331641 -173011
832783705761627008 370634 308173 331674 -173042
832783705779839232 370667 308153 331707 -173072
832783705798051456 370624 308154 331695 -173078
832783705816263680 370659 308131 331673 -173069
832783705834476032 370638 308131 331650 -173055
832783705852688256 370665 308138 331689 -173074
832783705870900480 370602 308139 331672 -173052
832783705889112704 370654 308188 331655 -173019
832783705907324928 370667 308145 331639 -173046
832783705925537280 370668 308133 331640 -173095
832783705943749504 370602 308121 331656 -173119
832783705961961728 370621 308163 331710 -173108
832783705980173952 370600 308122 331651 -173095
832783705998386304 370633 308119 331740 -173082
832783706016598528 370675 308155 331717 -173043
832783706034810752 370670 308155 331708 -173034
832783706053022976 370651 308146 331670 -173051
832783706071235200 370645 308155 331650 -173078
832783706089447552 370652 308189 331681 -173047
832783706107659776 370627 308142 331696 -173054
832783706125872000 370638 308136 331652 -173040
832783706144084224 370627 308141 331723 -173073
832783706162296576 370603 308114 331632 -173053
832783706180508800 370589 308092 331672 -173047
832783706198721024 370604 308089 331692 -173105
832783706216933248 370603 308182 331671 -173052
832783706235145472 370631 308129 331688 -173039
832783706253357824 370639 308170 331679 -173059
832783706271570048 370585 308174 331665 -173088
832783706289782272 370547 308111 331688 -173105
832783706307994496 370588 308159 331685 -173089
832783706326206848 370572 308125 331644 -173109
832783706344419072 370574 308138 331599 -173082
832783706362631296 370609 308149 331616 -173097
832783706380843520 370592 308065 331598 -173103
832783706399055818 370536 308068 331621 -173079
832783706417268608 370527 308118 331644 -173078
832783706435481344 370598 308132 331645 -173014
832783706453694080 370593 308195 331637 -173040
832783706471906688 370633 308173 331674 -173065
832783706490119424 370578 308201 331624 -173093
832783706508332160 377373 314920 331730 -173048
832783706526544896 380130 317631 331720 -173094
832783706544757504 380828 318274 331687 -173089
832783706562970240 380544 318107 331704 -173074
832783706581182976 379889 317461 331719 -173036
832783706599395712 379297 316871 331688 -173064
832783706617608320 378967 316587 331722 -173128
832783706635821056 379148 316685 331666 -173110
832783706654033792 379523 317128 331707 -173070
832783706672246528 380016 317575 331710 -173042
832783706690459264 380267 317855 331677 -173064
832783706708671872 380454 317991 331634 -173048
832783706726884608 380473 318060 331628 -173054
832783706745097344 380739 318283 331681 -173065
832783706763310080 381161 318717 331742 -173046
832783706781522688 381648 319162 331697 -173127
832783706799735424 382155 319684 331706 -173065
832783706817948160 382043 319564 331675 -173100
832783706836160896 381467 319089 331754 -173063
832783706854373504 380648 318220 331718 -173071
832783706872586240 379785 317287 331669 -172989
832783706890798976 379160 316719 331739 -173071
832783706909011594 379024 316572 331709 -173070
832783706927223040 379226 316820 331698 -173033
832783706945434496 379701 317208 331662 -173087
832783706963645952 380088 317660 331643 -173055
832783706981857408 380397 317905 331655 -173036
832783707000068864 380430 318000 331696 -173052
832783707018280320 380704 318227 331692 -173046
832783707036491776 380928 318422 331673 -173035
832783707054703232 381363 318856 331732 -173033
832783707072914560 381817 319358 331708 -173078
832783707091126016 382186 319695 331747 -173052
832783707109337472 381918 319451 331674 -173053
832783707127548928 381240 318761 331643 -173088
832783707145760384 380333 317915 331692 -172990
832783707163971840 379540 317114 331717 -173042
832783707182183296 379062 316618 331787 -173023
832783707200394752 379043 316603 331793 -173016
832783707218606208 379322 316824 331695 -173072
832783707236817664 379781 317324 331777 -173070
832783707255029120 380182 317709 331760 -173041
832783707273240576 380432 317964 331765 -173026
832783707291452032 380502 318037 331747 -173065
832783707309663488 380617 318144 331700 -173035
832783707327874816 380997 318535 331677 -173077
832783707346086272 381456 319023 331696 -173054
832783707364297728 381956 319541 331688 -173053
832783707382509184 382125 319704 331721 -173077
832783707400720640 381756 319315 331686 -173072
832783707418932096 380952 318550 331689 -173059
832783707437143552 380052 317620 331704 -173052
832783707455355008 379310 316880 331718 -173051
832783707473566464 379056 316545 331705 -173043
832783707491777920 379074 316619 331665 -173044
832783707509989376 379495 317026 331680 -173029
832783707528200832 379935 317485 331687 -173047
832783707546412288 380205 317832 331754 -173040
832783707564623686 380379 317980 331672 -173035
832783707582834688 380503 318049 331722 -173003
832783707601045632 380744 318269 331748 -173051
832783707619256576 381138 318654 331660 -173047
832783707637467392 381655 319179 331682 -173061
832783707655678336 382097 319650 331692 -173019
832783707673889280 382124 319565 331685 -173029
832783707692100224 381518 319065 331701 -173011
832783707710311168 380703 318226 331730 -173025
832783707728521984 379814 317389 331741 -173053
832783707746732928 379232 316735 331748 -173086
832783707764943872 379007 316513 331696 -173047
832783707783154816 379141 316768 331716 -173067
832783707801365760 379561 317137 331689 -173061
832783707819576576 379988 317644 331727 -173009
832783707837787520 380248 317919 331720 -173067
832783707855998464 380489 317953 331715 -173051
832783707874209408 380533 318133 331675 -173027
832783707892420352 380862 318430 331723 -173000
832783707910631168 381272 318848 331766 -173027
832783707928842112 381734 319350 331741 -173081
832783707947053056 382090 319705 331671 -173059
832783707965264000 381922 319506 331675 -173080
832783707983474944 381324 318960 331678 -173040
832783708001685760 380468 318036 331683 -173011
832783708019896704 379620 317174 331715 -173023
832783708038107648 379071 316675 331712 -173074
832783708056318592 379009 316633 331681 -173002
832783708074529536 379299 316876 331660 -173052
832783708092740352 379667 317309 331691 -173080
832783708110951296 380098 317697 331667 -173025
832783708129162240 380326 317928 331671 -173055
832783708147373184 380489 318040 331771 -173057
832783708165584128 380584 318176 331730 -173024
832783708183794944 380895 318446 331751 -173064
832783708202005842 381392 318988 331695 -173036
832783708220217472 381924 319507 331700 -173040
832783708238429056 382099 319731 331658 -173023
832783708256640768 381763 319420 331702 -173060
832783708274852352 381050 318646 331744 -173006
832783708293063936 380150 317746 331764 -173029
832783708311275520 379387 316941 331721 -173123
832783708329487232 378962 316566 331721 -173099
832783708347698816 379020 316660 331692 -173116
832783708365910400 379472 317043 331743 -173048
832783708384121984 379892 317484 331758 -173043
832783708402333696 380264 317833 331748 -173046
832783708420545280 380384 318017 331756 -172988
832783708438756864 380508 318073 331753 -173043
832783708456968448 380713 318320 331793 -172997
832783708475180160 381026 318642 331706 -173029
832783708493391744 381612 319203 331744 -173002
832783708511603328 382044 319617 331735 -173045
832783708529814912 382034 319645 331726 -173050
832783708548026624 381577 319241 331699 -173053
832783708566238208 380758 318390 331697 -173121
832783708584449792 379913 317507 331750 -173035
832783708602661376 379226 316816 331719 -173050
832783708620873088 378994 316634 331742 -173056
832783708639084672 379194 316699 331766 -173040
832783708657296256 379592 317221 331757 -173050
832783708675507840 380026 317636 331755 -173044
832783708693719552 380314 317955 331725 -173030
832783708711931136 380445 318063 331714 -173020
832783708730142720 380647 318116 331726 -173028
832783708748354304 380773 318344 331734 -173054
832783708766566016 381217 318781 331680 -173106
832783708784777600 381731 319288 331657 -173088
832783708802989184 382070 319659 331686 -173054
832783708821200768 381992 319570 331700 -173071
832783708839412422 381344 318928 331700 -173068
832783708857624064 380519 318022 331719 -173029
832783708875835648 379620 317205 331733 -173027
832783708894047360 379106 316659 331778 -173017
832783708912258944 378954 316549 331725 -173073
832783708930470528 379296 316809 331719 -173038
832783708948682112 379722 317261 331655 -173087
832783708966893824 380150 317704 331685 -173055
832783708985105408 380311 317945 331767 -173077
832783709003316992 380385 318013 331751 -173094
832783709021528576 380573 318204 331717 -173051
832783709039740288 380907 318512 331695 -173057
832783709057951872 381391 318952 331668 -173025
832783709076163456 381898 319464 331725 -173079
832783709094375040 382129 319665 331701 -173074
832783709112586752 381836 319428 331704 -173109
832783709130798336 381132 318696 331778 -173038
832783709149009920 380129 317717 331712 -173040
832783709167221504 379422 316982 331627 -173086
832783709185433216 379017 316598 331686 -173043
832783709203644800 379061 316694 331674 -173044
832783709221856384 379410 316994 331630 -173081
832783709240067968 379863 317423 331680 -173117
832783709258279680 380193 317783 331669 -173103
832783709276491264 380431 318007 331720 -173063
832783709294702848 380513 318125 331717 -173029
832783709312914432 380704 318320 331737 -173067
832783709331126144 381047 318580 331672 -173099
832783709349337728 381627 319169 331785 -173020
832783709367549312 382013 319583 331716 -173074
832783709385760896 382098 319690 331706 -173044
832783709403972608 381656 319278 331714 -173074
832783709422184192 380797 318482 331736 -173094
832783709440395776 379834 317539 331705 -173078
832783709458607360 379160 316840 331681 -173087
832783709476819002 378899 316554 331732 -173093
832783709495031424 379146 316652 331705 -173094
832783709513243904 379538 317137 331749 -173082
832783709531456384 379995 317552 331765 -173041
832783709549668864 380279 317799 331741 -173033
832783709567881344 380376 318006 331743 -173057
832783709586093824 380463 318131 331727 -173055
832783709604306304 380761 318267 331683 -173093
832783709622518784 381236 318752 331754 -173018
832783709640731392 381733 319307 331715 -173077
832783709658943872 382148 319685 331717 -173031
832783709677156352 382029 319602 331703 -173063
832783709695368832 381366 318995 331651 -173093
832783709713581312 380575 318128 331702 -173018
832783709731793792 379723 317288 331660 -173039
832783709750006272 379100 316721 331709 -173038
832783709768218752 379030 316564 331726 -173079
832783709786431232 379254 316809 331723 -172972
832783709804643712 379641 317252 331682 -173080
832783709822856192 380114 317657 331670 -173047
832783709841068672 380354 317870 331717 -173056
832783709859281152 380525 318075 331798 -173009
832783709877493632 380598 318160 331727 -173057
832783709895706112 380934 318396 331764 -173042
832783709913918720 381427 318963 331751 -172979
832783709932131200 381877 319447 331682 -173057
832783709950343680 382119 319775 331738 -172988
832783709968556160 381899 319432 331699 -173047
832783709986768640 381161 318741 331732 -173047
832783710004981120 380211 317857 331733 -173050
832783710023193600 379448 317068 331757 -173116
832783710041406080 379039 316655 331749 -173103
832783710059618560 379123 316638 331705 -173050
832783710077831040 379429 316993 331752 -173053
832783710096043520 379891 317404 331736 -173006
832783710114256100 380189 317779 331725 -173063
832783710132467712 380340 317991 331706 -173070
832783710150679296 380495 318030 331732 -173085
832783710168891008 380632 318233 331681 -173106
832783710187102592 381041 318520 331696 -173075
832783710205314176 381551 319109 331688 -173043
832783710223525760 382090 319608 331739 -173061
832783710241737472 382101 319705 331770 -173052
832783710259949056 381698 319309 331739 -173041
832783710278160640 380890 318490 331716 -173067
832783710296372224 380009 317605 331713 -173026
832783710314583936 379322 316877 331709 -173019
832783710332795520 379010 316574 331748 -173057
832783710351007104 379244 316763 331776 -173027
832783710369218688 379551 317126 331690 -173056
832783710387430400 380027 317644 331749 -173016
832783710405641984 380296 317836 331723 -173050
832783710423853568 380409 317991 331722 -173043
832783710442065152 380482 318081 331665 -173064
832783710460276864 380717 318322 331705 -173025
832783710478488448 381161 318727 331703 -173028
832783710496700032 381648 319241 331690 -173019
832783710514911616 382119 319609 331706 -173038
832783710533123328 382006 319625 331687 -172983
832783710551334912 381674 319197 331683 -173034
832783710569546496 380577 318202 331643 -173098
832783710587758080 379747 317332 331690 -173044
832783710605969792 379170 316757 331663 -173030
832783710624181376 378986 316618 331670 -173051
832783710642392960 379212 316818 331686 -173065
832783710660604544 379636 317301 331749 -173044
832783710678816256 380074 317646 331759 -173053
832783710697027840 380282 317894 331736 -173109
832783710715239424 380391 317974 331691 -173098
832783710733451008 380569 318162 331772 -173038
832783710751662670 380830 318374 331706 -173074
832783710769875200 381369 318932 331757 -173077
832783710788087680 381832 319448 331706 -173045
832783710806300160 382087 319700 331713 -173115
832783710824512640 381867 319456 331744 -173071
832783710842725120 381191 318779 331708 -173094
832783710860937600 380319 317871 331678 -173041
832783710879150080 379484 317074 331662 -173098
832783710897362560 379049 316605 331687 -173096
832783710915575168 379057 316638 331705 -173047
832783710933787648 379344 316960 331767 -173082
832783710952000128 379814 317425 331753 -173065
832783710970212608 380160 317781 331718 -173107
832783710988425088 380425 317984 331713 -173080
832783711006637568 380505 318100 331727 -173041
832783711024850048 380639 318181 331678 -173079
832783711043062528 380908 318556 331719 -173046
832783711061275008 381558 319162 331731 -173127
832783711079487488 382014 319598 331751 -173076
832783711097699968 382119 319749 331744 -173065
832783711115912448 381773 319318 331675 -173092
832783711134124928 380955 318539 331743 -173076
832783711152337408 379958 317553 331619 -173142
832783711170549888 379297 316910 331685 -173088
832783711188762496 379033 316634 331748 -173060
832783711206974976 379166 316657 331768 -173058
832783711225187456 379549 317092 331692 -173058
832783711243399936 379974 317558 331700 -173027
832783711261612416 380246 317869 331667 -173064
832783711279824896 380360 317952 331678 -173128
832783711298037376 380546 318119 331768 -173059
832783711316249856 380715 318346 331725 -173057
832783711334462336 381123 318688 331736 -173060
832783711352674816 381671 319251 331786 -173043
832783711370887296 382153 319711 331749 -173035
832783711389099768 382094 319666 331687 -173035
832783711407311744 381546 319080 331707 -173056
832783711425523712 380662 318237 331718 -173050
832783711443735808 379809 317388 331754 -173073
832783711461947776 379183 316734 331749 -173055
832783711480159744 378965 316596 331721 -173085
832783711498371840 379150 316801 331720 -173062
832783711516583808 379619 317264 331748 -173050
832783711534795776 380091 317687 331759 -173104
832783711553007872 380333 317938 331723 -173096
832783711571219840 380414 318039 331639 -173090
832783711589431808 380569 318173 331708 -173052
832783711607643904 380853 318420 331742 -173065
832783711625855872 381225 318954 331739 -173063
832783711644067840 381766 319382 331720 -173095
832783711662279808 382092 319731 331723 -173047
832783711680491904 381911 319493 331737 -173054
832783711698703872 381285 318835 331759 -173051
832783711716915840 380386 317892 331720 -173028
832783711735127936 379548 317188 331810 -173077
832783711753339904 379071 316654 331758 -173050
832783711771551872 379052 316720 331778 -173094
832783711789763968 379295 316937 331710 -173099
832783711807975936 379743 317454 331734 -173060
832783711826187904 380188 317818 331740 -173048
832783711844400000 380346 317995 331697 -173062
832783711862611968 380443 318049 331733 -173103
832783711880823936 380654 318217 331763 -173027
832783711899036032 380985 318551 331717 -173012
832783711917248000 381456 319044 331768 -173031
832783711935459968 381883 319489 331725 -173081
832783711953672064 382137 319734 331827 -173052
832783711971884032 381750 319351 331757 -173075
832783711990096000 381018 318583 331753 -173051
832783712008308096 380115 317716 331766 -173059
832783712026520082 379367 316944 331710 -173065
832783712044733056 379045 316641 331731 -173039
832783712062946048 379139 316756 331733 -173035
832783712081159040 379544 317149 331790 -173024
832783712099371904 379974 317573 331725 -172994
832783712117584896 380304 317867 331725 -173025
832783712135797888 380421 318042 331765 -173010
832783712154010880 380522 318121 331727 -173095
832783712172223872 380770 318332 331838 -172997
832783712190436864 381151 318739 331832 -173025
832783712208649728 381664 319275 331799 -173053
832783712226862720 382136 319723 331805 -173036
832783712245075712 382034 319705 331755 -173016
832783712263288704 381538 319133 331740 -173017
832783712281501696 380702 318378 331768 -173038
832783712299714560 379835 317436 331735 -173068
832783712317927552 379257 316835 331765 -173057
832783712336140544 379040 316626 331794 -173026
832783712354353536 379215 316843 331718 -173043
832783712372566528 379647 317189 331707 -173085
832783712390779392 380087 317624 331685 -173045
832783712408992384 380408 317965 331770 -173040
832783712427205376 380459 318016 331787 -173043
832783712445418368 380485 318096 331707 -173034
832783712463631360 380784 318392 331736 -172979
832783712481844352 381236 318864 331769 -173042
832783712500057216 381798 319407 331787 -173048
832783712518270208 382176 319720 331788 -172992
832783712536483200 382068 319693 331775 -173038
832783712554696192 381390 318952 331738 -173050
832783712572909184 380428 318086 331744 -173035
832783712591122048 379644 317255 331724 -173003
832783712609335040 379143 316760 331765 -173030
832783712627548032 379016 316640 331763 -173033
832783712645761024 379360 316923 331751 -173011
832783712663973964 379805 317358 331774 -173072
832783712682185600 380149 317727 331699 -173071
832783712700397184 380326 317970 331695 -173058
832783712718608896 380457 318016 331729 -173044
832783712736820480 380594 318212 331675 -173081
832783712755032064 380910 318594 331754 -173027
832783712773243648 381426 319013 331771 -173053
832783712791455360 381951 319519 331763 -173038
832783712809666944 382189 319803 331777 -173007
832783712827878528 381778 319397 331703 -173098
832783712846090112 381041 318673 331724 -173014
832783712864301824 380131 317720 331723 -173018
832783712882513408 379375 317016 331772 -173051
832783712900724992 379102 316659 331757 -173056
832783712918936576 379152 316714 331799 -173022
832783712937148288 379523 317043 331775 -173000
832783712955359872 379897 317472 331771 -172973
832783712973571456 380212 317833 331751 -172999
832783712991783040 380401 318000 331787 -172999
832783713009994752 380490 318094 331740 -173081
832783713028206336 380730 318284 331766 -173033
832783713046417920 381251 318807 331709 -173059
832783713064629504 381639 319232 331735 -173114
832783713082841216 382085 319608 331685 -173134
832783713101052800 382157 319729 331771 -173075
832783713119264384 381659 319270 331783 -173119
832783713137475968 380804 318438 331767 -173139
832783713155687680 379904 317505 331721 -173062
832783713173899264 379220 316817 331688 -173072
832783713192110848 379017 316624 331727 -173034
832783713210322432 379251 316776 331749 -173005
832783713228534144 379580 317114 331713 -173056
832783713246745728 380065 317599 331736 -173088
832783713264957312 380360 317915 331794 -173054
832783713283168896 380453 318042 331768 -173062
832783713301380534 380513 318167 331758 -173125
832783713319592960 380775 318388 331760 -173059
832783713337805440 381148 318810 331739 -173089
832783713356017920 381741 319342 331720 -173070
832783713374230400 382086 319732 331750 -173056
832783713392442880 381988 319673 331781 -172996
832783713410655360 381338 319064 331727 -173114
832783713428867840 380481 318172 331800 -173070
832783713447080320 379579 317265 331758 -173069
832783713465292928 379095 316697 331735 -173037
832783713483505408 379018 316600 331713 -173040
832783713501717888 379307 316869 331746 -173028
832783713519930368 379694 317302 331690 -173076
832783713538142848 380093 317692 331733 -173067
832783713556355328 380471 318063 331771 -173058
832783713574567808 380527 318126 331727 -173021
832783713592780288 380644 318179 331759 -173050
832783713610992768 380915 318488 331731 -173027
832783713629205248 381378 318913 331716 -173046
832783713647417728 381878 319461 331716 -173012
832783713665630208 382105 319697 331689 -173065
832783713683842688 381879 319462 331723 -173063
832783713702055168 381109 318732 331730 -173094
832783713720267648 380172 317857 331742 -173050
832783713738480256 379390 317033 331691 -173048
832783713756692736 378997 316607 331713 -173081
832783713774905216 379092 316708 331738 -173045
832783713793117696 379381 317007 331702 -173086
832783713811330176 379872 317470 331770 -173060
832783713829542656 380199 317786 331757 -173052
832783713847755136 380378 318045 331826 -173036
832783713865967616 380445 318047 331760 -173038
832783713884180096 380655 318222 331814 -173086
832783713902392576 381062 318640 331775 -173036
832783713920605056 381564 319133 331751 -173062
832783713938817632 382015 319612 331735 -173050
832783713957028352 382119 319693 331697 -173098
832783713975239040 381633 319257 331704 -173031
832783713993449856 380857 318432 331721 -173105
832783714011660544 379901 317540 331695 -173089
832783714029871360 379246 316790 331752 -173102
832783714048082048 379038 316621 331769 -173028
832783714066292864 379186 316757 331794 -173048
832783714084503552 379585 317215 331742 -173041
832783714102714368 379990 317579 331670 -173052
832783714120925056 380229 317967 331735 -173045
832783714139135744 380350 317999 331683 -173068
832783714157346560 380525 318084 331716 -173050
832783714175557248 380800 318342 331740 -173050
832783714193768064 381127 318731 331758 -173097
832783714211978752 381669 319300 331758 -173108
832783714230189568 382139 319684 331719 -173086
832783714248400256 381967 319555 331714 -173103
832783714266611072 381443 318971 331689 -173054
832783714284821760 380527 318075 331692 -173078
832783714303032448 379723 317299 331766 -173075
832783714321243264 379129 316705 331744 -173080
832783714339453952 378999 316571 331782 -173053
832783714357664768 379268 316859 331729 -173073
832783714375875456 379665 317270 331758 -173114
832783714394086272 380107 317672 331775 -173108
832783714412296960 380294 317936 331757 -173051
832783714430507776 380362 317972 331712 -173123
832783714448718464 380555 318157 331763 -173072
832783714466929152 380841 318431 331723 -173104
832783714485139968 381283 318934 331769 -173070
832783714503350656 381782 319405 331761 -173089
832783714521561472 382300 319866 331758 -172997
832783714539772160 381942 319542 331752 -173053
832783714557982976 381180 318791 331753 -173055
832783714576193694 380200 317836 331736 -173097
832783714594405248 379474 317047 331761 -173086
832783714612616832 379045 316683 331703 -173095
832783714630828544 379085 316695 331741 -173060
832783714649040128 379448 317039 331770 -173020
832783714667251712 379867 317458 331756 -173028
832783714685463296 380212 317759 331751 -173051
832783714703675008 380457 318041 331773 -173017
832783714721886592 380476 318117 331698 -173025
832783714740098176 380598 318254 331732 -173034
832783714758309760 380963 318628 331769 -173060
832783714776521472 381520 319089 331760 -173008
832783714794733056 381971 319581 331702 -173069
832783714812944640 382091 319706 331736 -173093
832783714831156224 381716 319331 331733 -173048
832783714849367936 380877 318509 331716 -173076
832783714867579520 379970 317622 331775 -173097
832783714885791104 379321 316892 331731 -173064
832783714904002688 378996 316581 331735 -173074
832783714922214400 379113 316769 331737 -173053
832783714940425984 379472 317167 331752 -173077
832783714958637568 379973 317540 331740 -173064
832783714976849152 380331 317943 331764 -173077
832783714995060864 380433 318031 331750 -173058
832783715013272448 380538 318123 331767 -173082
832783715031484032 380899 318439 331798 -173075
832783715049695616 381240 318841 331827 -173048
832783715067907328 381742 319362 331757 -173079
832783715086118912 382191 319685 331732 -173054
832783715104330496 382092 319593 331722 -173072
832783715122542080 381548 319068 331777 -173040
832783715140753792 380675 318203 331733 -173077
832783715158965376 379803 317411 331790 -173029
832783715177176960 379163 316773 331806 -173056
832783715195388544 378926 316633 331736 -173079
832783715213600274 379204 316855 331732 -173036
832783715231811840 379696 317278 331759 -173019
832783715250023424 380069 317710 331799 -173048
832783715268235136 380362 317947 331763 -173051
832783715286446720 380432 318042 331713 -173077
832783715304658304 380593 318181 331756 -173053
832783715322869888 380814 318408 331789 -173086
832783715341081600 381262 318884 331801 -173071
832783715359293184 381849 319404 331759 -173069
832783715377504768 382122 319651 331772 -173070
832783715395716352 381883 319487 331720 -173078
832783715413928064 381132 318779 331753 -173143
832783715432139648 380273 317913 331756 -173045
832783715450351232 379510 317102 331763 -173061
832783715468562816 379103 316709 331767 -173036
832783715486774528 379119 316727 331793 -173040
832783715504986112 379380 317023 331729 -173113
832783715523197696 379800 317421 331781 -173055
832783715541409280 380161 317789 331755 -173040
832783715559620992 380437 317983 331777 -173005
832783715577832576 380524 318127 331789 -173019
832783715596044160 380661 318259 331810 -173074
832783715614255744 381008 318602 331795 -173050
832783715632467456 381524 319083 331710 -173056
832783715650679040 382000 319602 331782 -173076
832783715668890624 382135 319777 331772 -173059
832783715687102208 381768 319401 331763 -173076
832783715705313920 380946 318630 331816 -173038
832783715723525504 380036 317643 331713 -173105
832783715741737088 379328 316979 331780 -173054
832783715759948672 379021 316652 331835 -173030
832783715778160384 379092 316726 331748 -173080
832783715796371968 379496 317154 331724 -173097
832783715814583552 379956 317531 331772 -173070
832783715832795136 380187 317846 331752 -173122
832783715851006844 380415 318056 331777 -173097
832783715869217792 380520 318139 331755 -173091
832783715887428736 380734 318358 331780 -173102
832783715905639808 381099 318678 331751 -173054
832783715923850752 381621 319235 331738 -173111
832783715942061824 382064 319673 331735 -173087
832783715960272768 382095 319663 331733 -173099
832783715978483840 381548 319088 331741 -173073
832783715996694784 380717 318267 331777 -173051
832783716014905856 379787 317370 331718 -173151
832783716033116800 379179 316777 331736 -173116
832783716051327872 379094 316714 331734 -173053
832783716069538816 379283 316908 331795 -173050
832783716087749888 379668 317272 331782 -173057
832783716105960832 380078 317666 331757 -173050
832783716124171904 380359 317936 331772 -173076
832783716142382848 380452 318046 331791 -173062
832783716160593920 380541 318132 331760 -173111
832783716178804864 380827 318414 331759 -173078
832783716197015936 381199 318866 331746 -173117
832783716215226880 381784 319424 331822 -173045
832783716233437952 382141 319838 331798 -173021
832783716251648896 381969 319645 331746 -173018
832783716269859968 381318 318894 331726 -173063
832783716288070912 380365 318031 331704 -173034
832783716306281984 379606 317230 331803 -173016
832783716324492928 379130 316746 331730 -173012
832783716342704000 379099 316625 331749 -173075
832783716360914944 379362 316958 331818 -173072
832783716379126016 379737 317347 331726 -173088
832783716397336960 380124 317781 331808 -173037
832783716415548032 380400 317957 331754 -173024
832783716433758976 380494 318122 331759 -173080
832783716451970048 380619 318283 331789 -173060
832783716470180992 380912 318575 331722 -173077
832783716488392060 381437 319049 331705 -173028
832783716506603392 381990 319603 331770 -173039
832783716524814720 382165 319796 331755 -173040
832783716543026048 381803 319425 331741 -173099
832783716561237504 381189 318770 331718 -173074
832783716579448832 380161 317780 331756 -173059
832783716597660160 379395 317022 331701 -173072
832783716615871488 379046 316652 331797 -173042
832783716634082816 379140 316734 331805 -173029
832783716652294272 379442 317058 331743 -173076
832783716670505600 379935 317520 331723 -173046
832783716688716928 380276 317903 331791 -173022
832783716706928256 380447 318024 331815 -173033
832783716725139712 380590 318062 331807 -173027
832783716743351040 380738 318308 331790 -173034
832783716761562368 381151 318703 331785 -173098
832783716779773696 381627 319235 331820 -173035
832783716797985024 382109 319631 331732 -173007
832783716816196480 382029 319668 331753 -173037
832783716834407808 381605 319218 331845 -173012
832783716852619136 380724 318405 331815 -172955
832783716870830464 379925 317459 331757 -172976
832783716889041792 379253 316859 331752 -172988
832783716907253248 379043 316681 331875 -172982
832783716925464576 379218 316809 331782 -172973
832783716943675904 379649 317278 331808 -172999
832783716961887232 380006 317684 331772 -173030
832783716980098560 380314 317911 331807 -172982
832783716998310016 380507 318002 331753 -173042
832783717016521344 380613 318154 331736 -173086
832783717034732672 380845 318443 331724 -173047
832783717052944000 381274 318889 331769 -173026
832783717071155456 381864 319363 331743 -172990
832783717089366784 382135 319726 331769 -173051
832783717107578112 382050 319593 331785 -173016
832783717125789486 381361 318934 331722 -173050
832783717144000128 380461 318121 331743 -173069
832783717162210816 379641 317260 331786 -173007
832783717180421632 379112 316729 331820 -173038
832783717198632320 379060 316671 331752 -172993
832783717216843136 379294 316978 331798 -173033
832783717235053824 379716 317427 331770 -173020
832783717253264640 380158 317812 331798 -173040
832783717271475328 380372 317995 331731 -173107
832783717289686144 380495 318070 331747 -173082
832783717307896832 380632 318223 331765 -173028
832783717326107520 380959 318552 331727 -173006
832783717344318336 381425 319012 331791 -173020
832783717362529024 381870 319509 331769 -173061
832783717380739840 382128 319754 331753 -173051
832783717398950528 381836 319404 331794 -173030
832783717417161344 381135 318680 331815 -173027
832783717435372032 380153 317786 331780 -173063
832783717453582848 379419 317026 331746 -173052
832783717471793536 379062 316666 331735 -173057
832783717490004224 379106 316707 331733 -173072
832783717508215040 379508 317063 331748 -173030
832783717526425728 379881 317513 331763 -173091
832783717544636544 380199 317905 331806 -173041
832783717562847232 380382 317997 331768 -173074
832783717581058048 380498 318152 331809 -173072
832783717599268736 380674 318354 331791 -173037
832783717617479552 381045 318625 331751 -173057
832783717635690240 381572 319199 331753 -173102
832783717653900928 382030 319629 331760 -173079
832783717672111744 382093 319726 331783 -173072
832783717690322432 381682 319254 331777 -173081
832783717708533248 380856 318456 331781 -173034
832783717726743936 379972 317619 331815 -173040
832783717744954752 379308 316940 331756 -173035
832783717763165548 379049 316733 331821 -172988
832783717781377152 379145 316757 331771 -173055
832783717799588736 379631 317251 331804 -173048
832783717817800448 380093 317650 331799 -173051
832783717836012032 380381 317952 331810 -173044
832783717854223616 380455 318006 331761 -173057
832783717872435200 380574 318122 331775 -173046
832783717890646912 380777 318347 331806 -173059
832783717908858496 381278 318804 331776 -172992
832783717927070080 381795 319339 331809 -172997
832783717945281664 382176 319760 331780 -173017
832783717963493376 381989 319628 331770 -173033
832783717981704960 381398 319019 331740 -173090
832783717999916544 380584 318152 331806 -173034
832783718018128128 379712 317238 331756 -173039
832783718036339840 379159 316814 331792 -173044
832783718054551424 379053 316654 331817 -173076
832783718072763008 379364 316957 331860 -173027
832783718090974592 379737 317356 331787 -173044
832783718109186304 380129 317734 331783 -173074
832783718127397888 380442 318027 331740 -173025
832783718145609472 380459 318059 331755 -173067
832783718163821056 380679 318207 331801 -173011
832783718182032768 380969 318537 331795 -173031
832783718200244352 381390 319019 331791 -173077
832783718218455936 381885 319546 331773 -173043
832783718236667520 382069 319747 331763 -173073
832783718254879232 381856 319540 331761 -172978
832783718273090816 381121 318768 331823 -173026
832783718291302400 380294 317921 331795 -173086
832783718309513984 379393 317061 331701 -173074
832783718327725696 379053 316709 331801 -173045
832783718345937280 379077 316689 331769 -173036
832783718364148864 379401 317038 331790 -173090
832783718382360448 379855 317475 331776 -173087
832783718400572118 380264 317899 331803 -173065
832783718418782336 380451 318045 331863 -173001
832783718436992512 380559 318176 331809 -173043
832783718455202560 380723 318326 331742 -173018
832783718473412736 381112 318704 331775 -173025
832783718491622912 381619 319232 331894 -173030
832783718509832960 382002 319639 331838 -173080
832783718528043136 382176 319740 331820 -173021
832783718546253312 381842 319500 331797 -173064
832783718564463360 380951 318562 331770 -173081
832783718582673536 380037 317641 331804 -173069
832783718600883712 379280 316920 331766 -173089
832783718619093760 378976 316628 331766 -173054
832783718637303936 379088 316803 331736 -173082
832783718655514112 379596 317133 331746 -173100
832783718673724160 380018 317601 331791 -173102
832783718691934336 380293 317882 331752 -173089
832783718710144512 380411 318033 331757 -173093
832783718728354560 380570 318153 331835 -173023
832783718746564736 380752 318420 331858 -173050
832783718764774912 381181 318797 331825 -173047
832783718782984960 381677 319358 331771 -173076
832783718801195136 382119 319759 331738 -173075
832783718819405312 382089 319655 331781 -173024
832783718837615360 381503 319106 331797 -173047
832783718855825536 380621 318224 331815 -173089
832783718874035712 379739 317333 331766 -173056
832783718892245888 379147 316745 331768 -173034
832783718910455936 379043 316657 331787 -173052
832783718928666112 379303 316914 331782 -173069
832783718946876288 379667 317295 331717 -173038
832783718965086336 380109 317744 331770 -173014
832783718983296512 380334 317947 331660 -173108
832783719001506688 380501 318071 331729 -173027
832783719019716736 380622 318164 331753 -173095
832783719037926816 380928 318513 331825 -173068
832783719056138496 381514 319122 331821 -173109
832783719074350208 381984 319609 331853 -173090
832783719092562048 382236 319839 331883 -173036
832783719110773760 381889 319507 331781 -173078
832783719128985472 381236 318843 331819 -173040
832783719147197184 380342 317980 331824 -173067
832783719165409024 379564 317144 331844 -173038
832783719183620736 379086 316695 331821 -173042
832783719201832448 379133 316712 331843 -172992
832783719220044160 379476 317063 331832 -173021
832783719238256000 379920 317513 331873 -173045
832783719256467712 380259 317824 331871 -173023
832783719274679424 380468 318070 331856 -172985
832783719292891264 380474 318135 331797 -173019
832783719311102976 380707 318390 331794 -173047
832783719329314688 380967 318685 331768 -173093
832783719347526400 381526 319149 331795 -173038
832783719365738240 382007 319633 331827 -173087
832783719383949952 382178 319766 331794 -173053
832783719402161664 381753 319328 331758 -173096
832783719420373504 381036 318621 331821 -173051
832783719438585216 380062 317662 331788 -173039
832783719456796928 379296 317007 331792 -173059
832783719475008640 379007 316596 331751 -173061
832783719493220480 379160 316758 331816 -172994
832783719511432192 379506 317203 331794 -173056
832783719529643904 379962 317599 331744 -173103
832783719547855616 380259 317886 331747 -173112
832783719566067456 380417 318075 331776 -173079
832783719584279168 380457 318172 331790 -173088
832783719602490880 380682 318370 331751 -173076
832783719620702720 381129 318826 331773 -173041
832783719638914432 381708 319344 331801 -173038
832783719657126144 382112 319816 331781 -173076
832783719675337976 381989 319728 331790 -173065
832783719693548800 381473 319110 331806 -173033
832783719711759616 380639 318284 331773 -173070
832783719729970560 379747 317400 331778 -173105
832783719748181376 379194 316785 331815 -173047
832783719766392320 379065 316642 331772 -173033
832783719784603136 379286 316905 331781 -173010
832783719802814080 379632 317290 331784 -173063
832783719821024896 380033 317732 331772 -173028
832783719839235840 380324 317983 331844 -173019
832783719857446656 380483 318089 331828 -173014
832783719875657600 380658 318220 331841 -173017
832783719893868416 380904 318500 331844 -173061
832783719912079360 381375 318976 331806 -172986
832783719930290176 381835 319464 331751 -172991
832783719948500992 382136 319805 331839 -173033
832783719966711936 381912 319580 331819 -173053
832783719984922752 381327 318922 331776 -173071
832783720003133696 380383 317948 331758 -173029
832783720021344512 379613 317155 331756 -173052
832783720039555456 379121 316758 331792 -173039
832783720057766272 379066 316722 331783 -173007
832783720075977216 379333 316973 331774 -173107
832783720094188032 379781 317478 331767 -173069
832783720112398976 380111 317787 331790 -173081
832783720130609792 380413 318035 331797 -173076
832783720148820736 380491 318136 331834 -173005
832783720167031552 380670 318281 331771 -173040
832783720185242496 380912 318603 331794 -173025
832783720203453312 381493 319080 331739 -173005
832783720221664128 381976 319641 331774 -173037
832783720239875072 382123 319785 331743 -173075
832783720258085888 381778 319432 331793 -173043
832783720276296832 380896 318631 331789 -173100
832783720294507648 380053 317803 331786 -173058
832783720312718614 379337 317007 331772 -173061
832783720330927104 379041 316695 331769 -172987
832783720349135616 379152 316790 331801 -172972
832783720367344256 379472 317136 331819 -173002
832783720385552768 379984 317573 331807 -173006
832783720403761408 380271 317835 331770 -173002
832783720421969920 380464 318013 331793 -172983
832783720440178432 380545 318124 331819 -173067
832783720458387072 380742 318342 331794 -173050
832783720476595584 381148 318724 331831 -172989
832783720494804224 381624 319287 331802 -172989
832783720513012736 382116 319714 331834 -172988
832783720531221376 382220 319872 331775 -173020
832783720549429888 381617 319239 331835 -173078
832783720567638400 380746 318421 331789 -172980
832783720585847040 379829 317511 331817 -173035
832783720604055552 379228 316875 331781 -173003
832783720622264192 378994 316611 331761 -173053
832783720640472704 379160 316879 331721 -173113
832783720658681216 379624 317215 331783 -173134
832783720676889856 380108 317642 331752 -173053
832783720695098368 380341 317979 331820 -173070
832783720713307008 380469 318085 331821 -173017
832783720731515520 380586 318170 331778 -173023
832783720749724032 380857 318431 331805 -173040
832783720767932672 381221 318826 331792 -173060
832783720786141184 381734 319467 331725 -173111
832783720804349824 382194 319798 331765 -173058
832783720822558336 381964 319592 331771 -173109
832783720840766848 381284 318962 331790 -173030
832783720858975488 380465 318090 331748 -173048
832783720877184000 379609 317248 331768 -173003
832783720895392640 379077 316727 331750 -173026
832783720913601152 379052 316717 331787 -173009
832783720931809792 379354 317006 331810 -173045
832783720950018368 379820 317377 331792 -173072
832783720968229248 380188 317803 331808 -173056
832783720986440192 380363 318053 331766 -173039
832783721004651136 380568 318184 331822 -173039
832783721022861952 380691 318285 331820 -173005
832783721041072896 381048 318693 331776 -173055
832783721059283840 381489 319114 331814 -173028
832783721077494784 381981 319571 331837 -173038
832783721095705728 382256 319793 331823 -173045
832783721113916544 381870 319487 331851 -173016
832783721132127488 381058 318779 331804 -173059
832783721150338432 380181 317791 331761 -173046
832783721168549376 379386 317035 331763 -173077
832783721186760320 379044 316663 331778 -173000
832783721204971136 379103 316704 331776 -173080
832783721223182080 379488 317131 331801 -173052
832783721241393024 379932 317560 331782 -173086
832783721259603968 380298 317938 331846 -173011
832783721277814912 380398 318085 331754 -173078
832783721296025728 380550 318157 331778 -173067
832783721314236672 380745 318340 331822 -173043
832783721332447616 381095 318739 331750 -173030
832783721350658560 381623 319249 331795 -173034
832783721368869504 382054 319739 331798 -173044
832783721387080448 382143 319717 331801 -173045
832783721405291264 381609 319290 331780 -173051
832783721423502208 380822 318449 331811 -173065
832783721441713152 379903 317518 331782 -173037
832783721459924096 379299 316910 331842 -173046
832783721478135040 379015 316641 331819 -173057
832783721496345856 379190 316852 331792 -173033
832783721514556800 379611 317265 331783 -173077
832783721532767744 380167 317825 331755 -173060
832783721550978688 380388 318063 331799 -173018
832783721569189632 380467 318199 331839 -172974
832783721587400536 380550 318188 331774 -173039
832783721605611520 380777 318456 331816 -173057
832783721623822464 381234 318800 331784 -173081
832783721642033408 381705 319431 331795 -173080
832783721660244352 382174 319826 331858 -173046
832783721678455424 382010 319680 331750 -173123
832783721696666368 381388 319056 331791 -173054
832783721714877312 380496 318172 331805 -173067
832783721733088256 379641 317260 331744 -173122
832783721751299200 379157 316776 331778 -173048
832783721769510144 379122 316682 331825 -173071
832783721787721088 379309 316898 331823 -173095
832783721805932160 379708 317366 331819 -173065
832783721824143104 380121 317800 331766 -173068
832783721842354048 380414 318103 331852 -173071
832783721860564992 380503 318149 331768 -173004
832783721878775936 380528 318141 331709 -173117
832783721896986880 380946 318500 331824 -173068
832783721915197824 381432 319029 331767 -173062
832783721933408896 381961 319580 331787 -173053
832783721951619840 382202 319822 331834 -173008
832783721969830784 381868 319507 331818 -173028
832783721988041728 381134 318781 331808 -173057
832783722006252672 380260 317849 331802 -173007
832783722024463616 379453 317095 331825 -173033
832783722042674560 379012 316708 331768 -173033
832783722060885632 379065 316741 331810 -173021
832783722079096576 379478 317085 331784 -172986
832783722097307520 379880 317550 331804 -173018
832783722115518464 380231 317824 331764 -173041
832783722133729408 380434 318036 331817 -173098
832783722151940352 380550 318118 331799 -173052
832783722170151424 380676 318318 331735 -173103
832783722188362368 381031 318667 331780 -173046
832783722206573312 381607 319186 331825 -173036
832783722224784228 382022 319667 331781 -173103
832783722242995072 382119 319756 331792 -173108
832783722261205888 381662 319363 331816 -173056
832783722279416704 380819 318467 331730 -173051
832783722297627392 379958 317627 331786 -173047
832783722315838208 379285 316891 331776 -173017
832783722334049024 378992 316624 331811 -173057
832783722352259840 379156 316768 331790 -173079
832783722370470528 379630 317240 331855 -173028
832783722388681344 380061 317708 331844 -173065
832783722406892160 380317 317920 331785 -173048
832783722425102976 380450 318049 331815 -173095
832783722443313792 380570 318138 331763 -173031
832783722461524480 380730 318370 331787 -173104
832783722479735296 381185 318786 331792 -172996
832783722497946112 381765 319378 331821 -172996
832783722516156928 382288 319876 331715 -173069
832783722534367744 382137 319764 331791 -173040
832783722552578432 381480 319094 331746 -173090
832783722570789248 380658 318237 331808 -173018
832783722589000064 379661 317362 331756 -173109
832783722607210880 379126 316775 331732 -173023
832783722625421568 379060 316698 331788 -173019
832783722643632384 379259 316907 331809 -173103
832783722661843200 379709 317359 331772 -173055
832783722680054016 380091 317711 331788 -173029
832783722698264832 380388 317946 331764 -173096
832783722716475520 380417 318089 331805 -173105
832783722734686336 380582 318232 331802 -173067
832783722752897152 380881 318524 331783 -173042
832783722771107968 381369 318949 331744 -173054
832783722789318656 381958 319499 331792 -173125
832783722807529472 382166 319825 331819 -173080
832783722825740288 381894 319535 331785 -173065
832783722843951104 381204 318855 331761 -173069
832783722862161816 380325 317922 331743 -173057
832783722880371200 379533 317102 331702 -173064
832783722898580608 379056 316732 331822 -173028
832783722916790016 379090 316675 331772 -173006
832783722934999424 379418 317027 331798 -173056
832783722953208832 379880 317508 331801 -173054
832783722971418112 380266 317880 331786 -173027
832783722989627520 380401 318019 331793 -173065
832783723007836928 380562 318172 331884 -173053
832783723026046336 380675 318312 331777 -173057
832783723044255744 381009 318648 331812 -173077
832783723062465152 381552 319209 331863 -173030
832783723080674560 382029 319666 331803 -173043
832783723098883968 382173 319759 331787 -173074
832783723117093248 381724 319318 331783 -173053
832783723135302656 380940 318563 331797 -173019
832783723153512064 380004 317709 331832 -173091
832783723171721472 379336 317004 331794 -173081
832783723189930880 379087 316631 331767 -173047
832783723208140288 379130 316812 331766 -173050
832783723226349696 379552 317189 331837 -173075
832783723244559104 379976 317684 331817 -173082
832783723262768512 380311 317926 331874 -173051
832783723280977792 380364 318064 331789 -173093
832783723299187200 380521 318170 331804 -173085
832783723317396608 380756 318373 331820 -173102
832783723335606016 381157 318771 331790 -173099
832783723353815424 381676 319300 331784 -173010
832783723372024832 382105 319711 331821 -173062
832783723390234240 382009 319683 331777 -173022
832783723408443648 381458 319134 331759 -173067
832783723426652928 380537 318272 331723 -173074
832783723444862336 379696 317384 331784 -172999
832783723463071744 379133 316829 331777 -173038
832783723481281152 378970 316662 331790 -173062
832783723499490564 379288 316852 331782 -173086
832783723517701504 379655 317266 331817 -173055
832783723535912448 380096 317692 331780 -173025
832783723554123392 380359 317974 331785 -173030
832783723572334336 380463 318107 331788 -173026
832783723590545408 380565 318202 331822 -173019
832783723608756352 380807 318524 331790 -173053
832783723626967296 381319 318964 331800 -173035
832783723645178240 381839 319440 331766 -173027
832783723663389184 382132 319752 331753 -173010
832783723681600128 381930 319622 331852 -172976
832783723699811072 381206 318881 331843 -173040
832783723718022144 380362 317970 331765 -173011
832783723736233088 379544 317141 331795 -173060
832783723754444032 379066 316742 331770 -173058
832783723772654976 379066 316688 331777 -173067
832783723790865920 379388 316953 331789 -173087
832783723809076864 379808 317445 331788 -173037
832783723827287808 380197 317884 331799 -173040
832783723845498880 380408 318077 331906 -173007
832783723863709824 380535 318154 331836 -173040
832783723881920768 380693 318324 331802 -173031
832783723900131712 380967 318640 331726 -173073
832783723918342656 381484 319107 331773 -173072
832783723936553600 381962 319598 331799 -173057
832783723954764544 382132 319756 331834 -173045
832783723972975616 381696 319454 331822 -173050
832783723991186560 380916 318598 331820 -173057
832783724009397504 380040 317758 331861 -173064
832783724027608448 379444 317047 331885 -173028
832783724045819392 379170 316787 331850 -173040
832783724064030336 379248 316923 331871 -172963
832783724082241408 379573 317177 331784 -173031
832783724100452352 379951 317624 331868 -173087
832783724118663296 380318 317897 331849 -173022
832783724136874256 380453 318033 331820 -173006
832783724155083520 380544 318151 331833 -173062
832783724173292800 380744 318365 331788 -173060
832783724191501952 381169 318763 331742 -173081
832783724209711232 381754 319276 331812 -173028
832783724227920384 382152 319742 331815 -173038
832783724246129664 382124 319700 331801 -173054
832783724264338816 381573 319211 331805 -173080
832783724282548096 380673 318322 331821 -173091
832783724300757248 379740 317457 331786 -173110
832783724318966528 379173 316864 331754 -173027
832783724337175680 378956 316609 331784 -173123
832783724355384960 379206 316875 331777 -173037
832783724373594112 379642 317287 331769 -173007
832783724391803392 380079 317660 331787 -173011
832783724410012544 380357 317940 331808 -173027
832783724428221824 380425 318094 331797 -173053
832783724446430976 380590 318215 331806 -173064
832783724464640256 380877 318417 331831 -173053
832783724482849408 381281 318912 331798 -173106
832783724501058688 381831 319470 331817 -173120
832783724519267840 382148 319806 331816 -173043
832783724537477120 381929 319598 331784 -172990
832783724555686272 381406 319093 331773 -173065
832783724573895552 380470 318103 331799 -173033
832783724592104832 379595 317214 331851 -173065
832783724610313984 379154 316739 331823 -173039
832783724628523264 379120 316650 331814 -173055
832783724646732416 379415 317009 331821 -173061
832783724664941696 379807 317394 331781 -173052
832783724683150848 380257 317825 331799 -173039
832783724701360128 380519 318081 331828 -173067
832783724719569280 380481 318108 331718 -173087
832783724737778560 380694 318285 331812 -172983
832783724755987712 380992 318592 331825 -173027
832783724774196912 381522 319090 331757 -173039
832783724792407168 381940 319552 331784 -173089
832783724810617472 382114 319821 331801 -173030
832783724828827648 381747 319467 331797 -173064
832783724847037952 380957 318669 331789 -173114
832783724865248256 380127 317745 331774 -173077
832783724883458432 379319 317022 331719 -173074
832783724901668736 379039 316716 331829 -173036
832783724919879040 379117 316769 331800 -173087
832783724938089344 379424 317108 331767 -173077
832783724956299520 379862 317588 331761 -173019
832783724974509824 380248 317909 331739 -173041
832783724992720128 380482 318087 331792 -173028
832783725010930304 380548 318161 331801 -173047
832783725029140608 380666 318340 331806 -173046
832783725047350912 381103 318731 331856 -173050
832783725065561088 381688 319250 331788 -173013
832783725083771392 382167 319790 331879 -173028
832783725101981696 382161 319744 331760 -173021
832783725120192000 381640 319334 331891 -172992
832783725138402176 380754 318440 331814 -173043
832783725156612480 379906 317546 331829 -173025
832783725174822784 379218 316925 331835 -173046
832783725193032960 378956 316631 331800 -173114
832783725211243264 379199 316862 331843 -173112
832783725229453568 379582 317243 331791 -173078
832783725247663744 380046 317741 331810 -173093
832783725265874048 380342 317966 331777 -173144
832783725284084352 380456 318084 331831 -173044
832783725302294528 380472 318151 331804 -173067
832783725320504832 380805 318434 331771 -173073
832783725338715136 381269 318837 331797 -173088
832783725356925440 381744 319383 331759 -173062
832783725375135616 382089 319703 331763 -173117
832783725393345920 382034 319669 331870 -172989
832783725411556190 381320 318983 331774 -173037
832783725429767040 380451 318101 331833 -173096
832783725447977856 379627 317227 331774 -173085
832783725466188672 379117 316702 331767 -173105
832783725484399360 379054 316646 331823 -173100
832783725502610176 379329 316938 331782 -173037
832783725520820992 379908 317571 331790 -173109
832783725539031808 380187 317847 331769 -173090
832783725557242496 380387 318039 331809 -173104
832783725575453312 380450 318075 331787 -173076
832783725593664128 380662 318306 331783 -173025
832783725611874944 380904 318603 331741 -173113
832783725630085760 381485 319045 331756 -173090
832783725648296448 381902 319541 331833 -173054
832783725666507264 382126 319758 331810 -173086
832783725684718080 381855 319512 331819 -173014
832783725702928896 381155 318780 331872 -173022
832783725721139584 380211 317868 331849 -173059
832783725739350400 379519 317108 331863 -172972
832783725757561216 379132 316715 331831 -173013
832783725775772032 379194 316757 331879 -173006
832783725793982848 379498 317121 331851 -173073
832783725812193536 379897 317524 331769 -173079
832783725830404352 380289 317887 331777 -173022
832783725848615168 380457 318083 331835 -173009
832783725866825984 380461 318168 331810 -173019
832783725885036800 380687 318283 331776 -173073
832783725903247488 381153 318746 331769 -172985
832783725921458304 381647 319276 331786 -172952
832783725939669120 382099 319672 331781 -173059
832783725957879936 382106 319790 331803 -173003
832783725976090624 381727 319384 331811 -173038
832783725994301440 380831 318477 331785 -173026
832783726012512256 379937 317640 331832 -173050
832783726030723072 379327 316941 331807 -173086
832783726048933766 379065 316735 331810 -173057
832783726067143552 379205 316811 331800 -173039
832783726085353344 379624 317245 331816 -173020
832783726103563264 379999 317699 331800 -172999
832783726121773056 380316 317937 331860 -173057
832783726139982848 380519 318134 331873 -173023
832783726158192640 380536 318187 331706 -173071
832783726176402560 380829 318421 331832 -173044
832783726194612352 381211 318909 331748 -173076
832783726212822144 381780 319398 331793 -173022
832783726231032064 382120 319829 331845 -173030
832783726249241856 381999 319722 331879 -173013
832783726267451648 381378 319061 331759 -173082
832783726285661440 380486 318242 331810 -173089
832783726303871360 379715 317402 331863 -173037
832783726322081152 379209 316858 331841 -173050
832783726340290944 379100 316689 331777 -173036
832783726358500864 379310 316959 331836 -173020
832783726376710656 379727 317383 331852 -173115
832783726394920448 380130 317813 331896 -173077
832783726413130368 380380 318050 331862 -173021
832783726431340160 380498 318084 331826 -173005
832783726449549952 380619 318210 331793 -173082
832783726467759744 380920 318593 331822 -173011
832783726485969664 381374 319017 331789 -173090
832783726504179456 381967 319557 331815 -173047
832783726522389248 382158 319796 331852 -173007
832783726540599168 381824 319506 331849 -173053
832783726558808960 381164 318840 331835 -173017
832783726577018752 380273 317904 331884 -173031
832783726595228544 379522 317135 331845 -172999
832783726613438464 379017 316724 331782 -173092
832783726631648256 379082 316698 331792 -173069
832783726649858048 379481 317101 331797 -173055
832783726668067968 379899 317500 331732 -173061
832783726686277786 380262 317871 331759 -173102
832783726704488448 380486 318098 331836 -173041
832783726722699136 380598 318202 331902 -173034
832783726740909952 380758 318347 331860 -173074
832783726759120640 381109 318785 331871 -173081
832783726777331456 381607 319224 331837 -173116
832783726795542144 381986 319673 331791 -173095
832783726813752960 382119 319787 331842 -173065
832783726831963648 381712 319344 331835 -173069
832783726850174464 380865 318513 331798 -173092
832783726868385152 379966 317692 331828 -173094
832783726886595840 379322 316972 331853 -173102
832783726904806656 379061 316742 331846 -173044
832783726923017344 379139 316837 331851 -173077
832783726941228160 379544 317170 331819 -173088
832783726959438848 379958 317603 331778 -173072
832783726977649664 380277 317952 331792 -173021
832783726995860352 380528 318149 331834 -173022
832783727014071168 380563 318222 331758 -173072
832783727032281856 380769 318353 331748 -173119
832783727050492544 381200 318821 331826 -173071
832783727068703360 381661 319332 331810 -173104
832783727086914048 382121 319781 331822 -173013
832783727105124864 382053 319660 331840 -172969
832783727123335552 381463 319112 331824 -173036
832783727141546368 380649 318245 331856 -172992
832783727159757056 379720 317364 331844 -173010
832783727177967872 379073 316734 331765 -173094
832783727196178560 379021 316667 331852 -173021
832783727214389248 379289 316889 331834 -172977
832783727232600064 379660 317354 331823 -173071
832783727250810752 380087 317760 331789 -173095
832783727269021568 380397 318010 331816 -173019
832783727287232256 380472 318116 331816 -173062
832783727305443072 380616 318274 331844 -173059
832783727323653848 380865 318560 331835 -173075
832783727341865472 381378 319048 331775 -173056
832783727360077056 381831 319469 331787 -173082
832783727378288768 382155 319776 331781 -173043
832783727396500352 381972 319549 331791 -173022
832783727414711936 381314 318910 331824 -173098
832783727432923520 380314 317944 331793 -173088
832783727451135232 379507 317160 331814 -173069
832783727469346816 379140 316710 331793 -173061
832783727487558400 379152 316688 331825 -173025
832783727505769984 379569 317151 331823 -172996
832783727523981696 379879 317502 331811 -173080
832783727542193280 380189 317808 331793 -173085
832783727560404864 380435 318048 331774 -173099
832783727578616448 380512 318123 331802 -173121
832783727596828160 380678 318279 331845 -173106
832783727615039744 381011 318653 331806 -173097
832783727633251328 381553 319127 331835 -173043
832783727651462912 381993 319598 331787 -173122
832783727669674624 382145 319730 331799 -173130
832783727687886208 381804 319354 331846 -173116
832783727706097792 380930 318562 331783 -173082
832783727724309376 380027 317697 331817 -173053
832783727742521088 379419 317034 331845 -173069
832783727760732672 379041 316710 331763 -173113
832783727778944256 379152 316808 331772 -173128
832783727797155840 379584 317189 331788 -173074
832783727815367552 380043 317652 331821 -173024
832783727833579136 380311 317949 331794 -173034
832783727851790720 380488 318079 331872 -173016
832783727870002304 380513 318093 331798 -173075
832783727888214016 380715 318329 331820 -173092
832783727906425600 381212 318775 331773 -173064
832783727924637184 381922 319516 331756 -173075
832783727942848768 382158 319843 331801 -173088
832783727961060428 382090 319842 331811 -173074
832783727979272064 381553 319215 331867 -173057
832783727997483648 380659 318364 331835 -173039
832783728015695360 379919 317570 331771 -173026
832783728033906944 379246 316894 331835 -173012
832783728052118528 378998 316697 331827 -173026
832783728070330112 379242 316889 331769 -173036
832783728088541824 379558 317299 331765 -173086
832783728106753408 380069 317695 331835 -173069
832783728124964992 380365 317951 331764 -173048
832783728143176576 380483 318149 331775 -173008
832783728161388288 380627 318245 331824 -173034
832783728179599872 380853 318516 331824 -173039
832783728197811456 381340 318940 331798 -173039
832783728216023040 381848 319480 331827 -173013
832783728234234752 382157 319751 331821 -173044
832783728252446336 381879 319592 331802 -173072
832783728270657920 381257 318940 331755 -173063
832783728288869504 380398 318027 331832 -173079
832783728307081216 379552 317186 331842 -173096
832783728325292800 379089 316699 331807 -173076
832783728343504384 379145 316685 331799 -173116
832783728361715968 379331 316941 331716 -173081
832783728379927680 379809 317465 331802 -173133
832783728398139264 380182 317803 331780 -173019
832783728416350848 380379 318004 331834 -173042
832783728434562432 380464 318127 331826 -173009
832783728452774144 380607 318284 331786 -173044
832783728470985728 380941 318597 331829 -173063
832783728489197312 381521 319127 331849 -173063
832783728507408896 381952 319561 331802 -173065
832783728525620608 382070 319812 331804 -173064
832783728543832192 381762 319431 331806 -173089
832783728562043776 381025 318707 331806 -173079
832783728580255360 380119 317767 331758 -173093
832783728598466998 379387 317069 331826 -173085
832783728616677632 379095 316735 331817 -173090
832783728634888320 379138 316842 331801 -173102
832783728653099136 379603 317249 331880 -172994
832783728671309824 379962 317594 331805 -173052
832783728689520640 380327 317950 331886 -173010
832783728707731328 380404 318075 331827 -173029
832783728725942144 380524 318192 331784 -173039
832783728744152832 380701 318424 331771 -173072
832783728762363648 381177 318812 331824 -173026
832783728780574336 381668 319341 331820 -173081
832783728798785024 382097 319738 331884 -173088
832783728816995840 382088 319746 331904 -173053
832783728835206528 381539 319259 331835 -173048
832783728853417344 380739 318410 331816 -173023
832783728871628032 379891 317539 331791 -173036
832783728889838848 379242 316845 331815 -173094
832783728908049536 379097 316700 331845 -173055
832783728926260352 379261 316946 331855 -173018
832783728944471040 379706 317370 331826 -173025
832783728962681728 380092 317712 331838 -173071
832783728980892544 380340 318005 331865 -173019
832783728999103232 380405 318093 331812 -173110
832783729017314048 380557 318210 331852 -173016
832783729035524736 380923 318606 331843 -173028
832783729053735552 381318 319004 331844 -173060
832783729071946240 381815 319487 331869 -173088
832783729090157056 382154 319828 331863 -173063
832783729108367744 381997 319674 331821 -173026
832783729126578432 381353 319019 331782 -173001
832783729144789248 380398 318138 331855 -173001
832783729162999936 379592 317221 331828 -173025
832783729181210752 379114 316806 331873 -173008
832783729199421440 379081 316737 331883 -173078
832783729217632256 379384 316946 331821 -173087
832783729235843060 379843 317493 331821 -173044
832783729254054656 380157 317889 331839 -173070
832783729272266240 380378 318076 331836 -173067
832783729290477952 380467 318164 331785 -173089
832783729308689536 380630 318319 331820 -173037
832783729326901120 380920 318653 331834 -173030
832783729345112704 381403 319040 331852 -173081
832783729363324416 381932 319572 331776 -173123
832783729381536000 382127 319867 331836 -173063
832783729399747584 381767 319407 331798 -173061
832783729417959168 381039 318714 331804 -173009
832783729436170880 380107 317840 331822 -173003
832783729454382464 379448 317050 331884 -173013
832783729472594048 379065 316646 331839 -173080
832783729490805632 379136 316742 331839 -173017
832783729509017344 379497 317184 331823 -173056
832783729527228928 379931 317624 331840 -173070
832783729545440512 380388 318067 331876 -173025
832783729563652096 380544 318166 331886 -173037
832783729581863808 380542 318212 331833 -173073
832783729600075392 380709 318346 331852 -173081
832783729618286976 381080 318741 331831 -173045
832783729636498560 381633 319284 331850 -173016
832783729654710272 382064 319734 331805 -173029
832783729672921856 382081 319780 331832 -173053
832783729691133440 381598 319350 331839 -173010
832783729709345024 380704 318469 331848 -173080
832783729727556736 379832 317594 331817 -173080
832783729745768320 379234 316922 331800 -173081
832783729763979904 379010 316693 331840 -173078
832783729782191488 379219 316878 331822 -173090
832783729800403200 379601 317210 331753 -173093
832783729818614784 380007 317694 331766 -173057
832783729836826368 380297 317934 331852 -173121
832783729855037952 380440 318091 331822 -173099
832783729873249640 380618 318170 331832 -173065
832783729891460224 380853 318454 331805 -173079
832783729909670784 381271 318870 331802 -172988
832783729927881344 381785 319451 331876 -172992
832783729946091904 382139 319814 331848 -173046
832783729964302464 382036 319659 331852 -173096
832783729982513024 381457 319024 331855 -173031
832783730000723584 380548 318133 331835 -173087
832783730018934272 379586 317231 331781 -173086
832783730037144832 379159 316850 331850 -173053
832783730055355392 379086 316772 331827 -173064
832783730073565952 379410 316984 331835 -173050
832783730091776512 379775 317396 331846 -173114
832783730109987072 380164 317780 331781 -173104
832783730128197632 380415 318066 331817 -173040
832783730146408192 380539 318178 331790 -173071
832783730164618752 380674 318287 331826 -173045
832783730182829312 381020 318598 331821 -173086
832783730201039872 381506 319046 331851 -173013
832783730219250432 381999 319605 331851 -173038
832783730237461120 382186 319806 331840 -173025
832783730255671680 381915 319517 331884 -173041
832783730273882240 381145 318884 331870 -173024
832783730292092800 380240 317969 331871 -172986
832783730310303360 379488 317164 331846 -173039
832783730328513920 379070 316762 331837 -173042
832783730346724480 379169 316766 331828 -173062
832783730364935040 379427 317107 331853 -172985
832783730383145600 379914 317559 331835 -173019
832783730401356160 380249 317979 331815 -173098
832783730419566720 380472 318097 331835 -173094
832783730437777280 380400 318147 331781 -173056
832783730455987840 380683 318345 331803 -173094
832783730474198528 381046 318724 331834 -173098
832783730492409088 381579 319247 331811 -173086
832783730510619598 382223 319885 331861 -173053
832783730528830592 382148 319813 331821 -173070
832783730547041536 381694 319378 331851 -173016
832783730565252480 380880 318526 331865 -173042
832783730583463296 379943 317612 331789 -173126
832783730601674240 379246 316937 331843 -173099
832783730619885184 379048 316674 331839 -173088
832783730638096128 379191 316872 331815 -173064
832783730656307072 379623 317248 331809 -173046
832783730674517888 380069 317718 331823 -173077
832783730692728832 380317 318038 331839 -173033
832783730710939776 380455 318161 331889 -173052
832783730729150720 380518 318212 331834 -173055
832783730747361664 380762 318445 331848 -173040
832783730765572480 381194 318933 331876 -173081
832783730783783424 381760 319446 331823 -173009
832783730801994368 382183 319764 331780 -173046
832783730820205312 382029 319685 331806 -173076
832783730838416256 381447 319105 331827 -172995
832783730856627072 380607 318247 331892 -173021
832783730874838016 379737 317359 331827 -173010
832783730893048960 379201 316843 331840 -172977
832783730911259904 379075 316753 331925 -172974
832783730929470848 379235 317013 331880 -173030
832783730947681664 379698 317439 331863 -173097
832783730965892608 380170 317857 331837 -173059
832783730984103552 380410 318094 331872 -173036
832783731002314496 380544 318186 331876 -172996
832783731020525440 380656 318311 331858 -173020
832783731038736256 380995 318558 331872 -173009
832783731056947200 381463 319063 331844 -173005
832783731075158144 381949 319521 331860 -173024
832783731093369088 382205 319812 331858 -173047
832783731111580032 381948 319544 331782 -173017
832783731129790848 381193 318796 331781 -173080
832783731148001754 380277 317947 331832 -173103
832783731166212736 379526 317159 331874 -173006
832783731184423680 379120 316801 331838 -172991
832783731202634752 379155 316762 331843 -173055
832783731220845696 379464 317084 331833 -173018
832783731239056768 379883 317494 331844 -173012
832783731257267712 380256 317892 331820 -172988
832783731275478784 380503 318030 331877 -173004
832783731293689728 380481 318155 331797 -173025
832783731311900800 380694 318323 331862 -173007
832783731330111744 381076 318677 331829 -172997
832783731348322816 381575 319192 331854 -172979
832783731366533760 382064 319723 331855 -173017
832783731384744832 382165 319777 331872 -173067
832783731402955776 381793 319433 331889 -173035
832783731421166848 381015 318597 331867 -173026
832783731439377792 380080 317686 331860 -172989
832783731457588864 379319 316983 331859 -173008
832783731475799808 379014 316737 331832 -173061
832783731494010880 379165 316846 331834 -173039
832783731512221824 379621 317211 331843 -173011
832783731530432896 380130 317767 331797 -173069
832783731548643840 380368 317989 331818 -173038
832783731566854912 380485 318084 331822 -173051
832783731585065856 380588 318175 331818 -173055
832783731603276928 380817 318421 331835 -173085
832783731621487872 381217 318826 331861 -173035
832783731639698944 381729 319368 331812 -173078
832783731657909888 382155 319739 331817 -173024
832783731676120960 382074 319769 331826 -173026
832783731694331904 381528 319176 331865 -173079
832783731712542976 380677 318325 331895 -173043
832783731730753920 379748 317461 331859 -173077
832783731748964992 379235 316906 331903 -173044
832783731767175936 379077 316725 331822 -173071
832783731785386970 379270 316931 331860 -173028
832783731803597952 379750 317337 331839 -173013
832783731821808896 380144 317792 331786 -173058
832783731840019840 380343 318024 331756 -173092
832783731858230784 380463 318183 331814 -173059
832783731876441856 380624 318305 331831 -173072
832783731894652800 380866 318519 331803 -173121
832783731912863744 381283 318995 331862 -173127
832783731931074688 381893 319573 331853 -173043
832783731949285632 382154 319783 331855 -173029
832783731967496576 381912 319610 331781 -173102
832783731985707520 381275 318968 331808 -173033
832783732003918592 380416 318115 331821 -172987
832783732022129536 379508 317258 331807 -173033
832783732040340480 379115 316939 331871 -173002
832783732058551424 379139 316797 331911 -173042
832783732076762368 379489 317140 331908 -173039
832783732094973312 379867 317560 331886 -173068
832783732113184256 380251 317877 331874 -173044
832783732131395328 380416 318036 331822 -173103
832783732149606272 380523 318200 331860 -173054
832783732167817216 380681 318386 331827 -173046
832783732186028160 381002 318640 331766 -173087
832783732204239104 381547 319191 331826 -173068
832783732222450048 382006 319693 331869 -173008
832783732240660992 382174 319826 331878 -173051
832783732258872064 381773 319373 331797 -173037
832783732277083008 380956 318603 331774 -173108
832783732295293952 380057 317755 331835 -173021
832783732313504896 379365 317025 331845 -173064
832783732331715840 378978 316732 331831 -173068
832783732349926784 379132 316827 331842 -173057
832783732368137856 379512 317183 331812 -173068
832783732386348800 379987 317653 331822 -173013
832783732404559744 380350 317984 331885 -172945
832783732422770662 380528 318140 331867 -172965
832783732440981632 380562 318224 331871 -173060
832783732459192576 380760 318399 331858 -173064
832783732477403520 381188 318786 331860 -173023
832783732495614464 381732 319395 331884 -173058
832783732513825408 382126 319805 331804 -173091
832783732532036352 382151 319798 331860 -173025
832783732550247296 381558 319176 331780 -173110
832783732568458240 380905 318515 331821 -173058
832783732586669184 379847 317542 331861 -173039
832783732604880128 379182 316878 331818 -173072
832783732623091072 379095 316762 331852 -172991
832783732641302016 379272 316953 331843 -173020
832783732659512832 379708 317340 331863 -173069
832783732677723776 380124 317752 331794 -173069
832783732695934720 380392 318122 331843 -172996
832783732714145664 380523 318190 331829 -173021
832783732732356608 380619 318262 331868 -173081
832783732750567552 380940 318501 331809 -173031
832783732768778496 381364 318970 331801 -172993
832783732786989440 381759 319448 331771 -173080
832783732805200384 382149 319763 331853 -173026
832783732823411328 382050 319665 331874 -173037
832783732841622272 381353 319046 331873 -172994
832783732859833216 380381 318064 331825 -173076
832783732878044160 379609 317268 331805 -173019
832783732896255104 379157 316763 331867 -173028
832783732914466048 379115 316768 331901 -173013
832783732932676992 379371 317005 331840 -173043
832783732950887936 379848 317452 331800 -173018
832783732969098880 380235 317874 331849 -173071
832783732987309824 380447 318022 331817 -173065
832783733005520768 380691 318227 331834 -173036
832783733023731712 380670 318328 331803 -173094
832783733041942656 380989 318640 331817 -173116
832783733060153600 381530 319163 331874 -173034
832783733078364444 381913 319705 331861 -173041
832783733096575360 382157 319897 331911 -173075
832783733114786304 381790 319452 331780 -173092
832783733132997248 381058 318730 331839 -173075
832783733151208192 380138 317835 331856 -173031
832783733169419264 379407 317104 331868 -173036
832783733187630208 379038 316700 331857 -173072
832783733205841152 379105 316780 331850 -173054
832783733224052096 379517 317160 331790 -173040
832783733242263040 379976 317622 331880 -173011
832783733260473984 380292 318003 331852 -173052
832783733278684928 380490 318142 331927 -173008
832783733296896000 380522 318213 331882 -173001
832783733315106944 380744 318456 331860 -173030
832783733333317888 381085 318771 331833 -173073
832783733351528832 381681 319350 331886 -173052
832783733369739776 382189 319810 331896 -173004
832783733387950720 382145 319727 331835 -173065
832783733406161664 381644 319292 331859 -173079
832783733424372736 380803 318474 331840 -173006
832783733442583680 379916 317599 331874 -173031
832783733460794624 379240 316882 331855 -173042
832783733479005568 379066 316736 331820 -173043
832783733497216512 379236 316912 331836 -173048
832783733515427456 379735 317386 331823 -173070
832783733533638400 380140 317764 331873 -173033
832783733551849472 380332 317998 331826 -173031
832783733570060416 380530 318127 331819 -172989
832783733588271360 380591 318218 331806 -173042
832783733606482304 380835 318455 331866 -173006
832783733624693248 381280 318930 331846 -173059
832783733642904192 381845 319416 331820 -173081
832783733661115264 382209 319788 331782 -173067
832783733679326208 381987 319604 331821 -173108
832783733697537152 381336 318964 331845 -173073
832783733715748136 380482 318101 331846 -173043
832783733733959680 379688 317300 331824 -173013
832783733752171264 379176 316841 331897 -173060
832783733770382976 379111 316771 331865 -173016
832783733788594560 379381 317069 331887 -173016
832783733806806144 379745 317466 331839 -173052
832783733825017728 380175 317895 331842 -173014
832783733843229440 380376 318067 331835 -173043
832783733861441024 380591 318218 331942 -172979
832783733879652608 380696 318357 331889 -173000
832783733897864192 380990 318631 331842 -173081
832783733916075904 381453 319105 331802 -172997
832783733934287488 381992 319636 331833 -173027
832783733952499072 382188 319795 331843 -173093
832783733970710656 381893 319537 331858 -173017
832783733988922368 381154 318804 331867 -173037
832783734007133952 380232 317823 331910 -173060
832783734025345536 379581 317199 331802 -173073
832783734043557120 379133 316777 331826 -173087
832783734061768832 379146 316727 331807 -173109
832783734079980416 379531 317129 331863 -173098
832783734098192000 379950 317644 331878 -173036
832783734116403584 380320 317982 331931 -173090
832783734134615296 380464 318158 331877 -173076
832783734152826880 380564 318213 331846 -173021
832783734171038464 380718 318399 331837 -173057
832783734189250048 381130 318736 331800 -173067
832783734207461760 381592 319249 331785 -173079
832783734225673344 382035 319746 331783 -173069
832783734243884928 382153 319770 331835 -173014
832783734262096512 381665 319295 331828 -173031
832783734280308224 380814 318456 331799 -173072
832783734298519808 379914 317608 331805 -173065
832783734316731392 379310 316929 331882 -172992
832783734334942976 379102 316659 331941 -173068
832783734353154706 379272 316842 331907 -173050
832783734371364992 379638 317306 331897 -173040
832783734389575296 380011 317678 331818 -173076
832783734407785600 380321 317965 331828 -173024
832783734425995904 380486 318124 331829 -173028
832783734444206208 380602 318233 331858 -173067
832783734462416512 380812 318397 331815 -173092
832783734480626816 381235 318883 331833 -173051
832783734498837120 381750 319431 331853 -173017
832783734517047424 382176 319858 331842 -173039
832783734535257728 382174 319865 331846 -173060
832783734553468032 381473 319186 331880 -173057
832783734571678336 380537 318215 331817 -173072
832783734589888640 379688 317348 331812 -173068
832783734608098944 379109 316868 331767 -173029
832783734626309376 379072 316664 331810 -173104
832783734644519680 379410 317016 331822 -173076
832783734662729984 379806 317459 331896 -173009
832783734680940288 380142 317821 331811 -173120
832783734699150592 380398 318027 331811 -173019
832783734717360896 380519 318178 331808 -173019
832783734735571200 380725 318292 331904 -173037
832783734753781504 380977 318614 331845 -173061
832783734771991808 381442 319113 331872 -173013
832783734790202112 381884 319617 331814 -173088
832783734808412416 382215 319820 331836 -172958
832783734826622720 381924 319522 331857 -173045
832783734844833024 381170 318812 331880 -173037
832783734863043328 380290 317953 331827 -173028
832783734881253632 379504 317195 331842 -173009
832783734899463936 379062 316733 331848 -173033
832783734917674240 379069 316753 331836 -173065
832783734935884544 379464 317096 331826 -173038
832783734954094848 379910 317587 331826 -173082
832783734972305152 380207 317870 331808 -173070
832783734990515508 380406 318058 331878 -173067
832783735008726400 380546 318164 331909 -173061
832783735026937344 380740 318356 331862 -173038
832783735045148288 381090 318703 331883 -173040
832783735063359232 381586 319244 331899 -173024
832783735081570304 382065 319759 331919 -173064
832783735099781248 382118 319803 331838 -173096
832783735117992192 381681 319387 331807 -173069
832783735136203136 380832 318535 331828 -173127
832783735154414080 379996 317672 331818 -173018
832783735172625024 379340 317018 331871 -173036
832783735190835968 379044 316707 331826 -173008
832783735209047040 379214 316838 331861 -173055
832783735227257984 379555 317245 331840 -173023
832783735245468928 379948 317677 331803 -173026
832783735263679872 380395 318021 331914 -172989
832783735281890816 380512 318175 331868 -173038
832783735300101760 380613 318226 331811 -173063
832783735318312704 380792 318407 331850 -173090
832783735336523776 381263 318882 331790 -173089
832783735354734720 381780 319455 331869 -173062
832783735372945664 382105 319815 331855 -173067
832783735391156608 382063 319735 331850 -173027
832783735409367552 381483 319168 331877 -173088
832783735427578496 380584 318212 331801 -173064
832783735445789440 379800 317400 331909 -172988
832783735464000512 379194 316861 331859 -173050
832783735482211456 379038 316741 331846 -173070
832783735500422400 379393 317019 331818 -173120
832783735518633344 379754 317421 331844 -173053
832783735536844288 380220 317809 331839 -173013
832783735555055232 380392 318097 331885 -173021
832783735573266304 380513 318218 331910 -173034
832783735591477248 380611 318283 331806 -173077
832783735609688192 380831 318546 331799 -173051
832783735627899200 381363 319026 331809 -173048
832783735646109184 381884 319517 331886 -173065
832783735664319232 382192 319800 331858 -173005
832783735682529408 381969 319651 331862 -173004
832783735700739456 381242 318885 331802 -173041
832783735718949504 380354 318018 331819 -173033
832783735737159680 379495 317195 331783 -173038
832783735755369728 379089 316771 331820 -173110
832783735773579776 379063 316721 331817 -173105
832783735791789952 379405 317063 331818 -173075
832783735810000000 379896 317534 331831 -173080
832783735828210048 380201 317836 331851 -173071
832783735846420224 380469 318083 331874 -173062
832783735864630272 380510 318207 331841 -173070
832783735882840320 380670 318340 331862 -173065
832783735901050496 380983 318682 331842 -173022
832783735919260544 381525 319168 331831 -173007
832783735937470592 382012 319592 331826 -173040
832783735955680768 382235 319738 331865 -173054
832783735973890816 381783 319405 331859 -173029
832783735992100864 380968 318601 331869 -173038
832783736010311040 380147 317842 331840 -173079
832783736028521088 379384 317025 331819 -173098
832783736046731136 379081 316726 331842 -173068
832783736064941312 379200 316810 331846 -173035
832783736083151360 379542 317170 331826 -173060
832783736101361408 379989 317644 331853 -173035
832783736119571584 380325 318042 331823 -173064
832783736137781632 380497 318103 331834 -173028
832783736155991680 380622 318207 331875 -173059
832783736174201856 380827 318415 331827 -173068
832783736192411904 381135 318876 331838 -173036
832783736210621952 381714 319366 331894 -173013
832783736228832128 382162 319838 331911 -173037
832783736247042176 382104 319816 331913 -173033
832783736265252374 381566 319240 331960 -173036
832783736283463296 380701 318339 331825 -173096
832783736301674240 379890 317570 331933 -173037
832783736319885184 379270 316968 331865 -173041
832783736338096128 379051 316768 331889 -173041
832783736356307200 379346 316947 331867 -173039
832783736374518144 379760 317460 331905 -173011
832783736392729088 380144 317787 331873 -173086
832783736410940032 380428 318072 331825 -172996
832783736429150976 380522 318133 331843 -173022
832783736447361920 380626 318326 331903 -173009
832783736465572864 380874 318588 331832 -173054
832783736483783936 381349 318991 331852 -173078
832783736501994880 381893 319502 331793 -173053
832783736520205824 382226 319861 331816 -173000
832783736538416768 381984 319604 331778 -173067
832783736556627712 381331 318946 331855 -173016
832783736574838656 380398 318006 331840 -173043
832783736593049600 379575 317243 331858 -173082
832783736611260672 379132 316814 331849 -173047
832783736629471616 379109 316743 331816 -173026
832783736647682560 379405 317017 331872 -173036
832783736665893504 379839 317511 331853 -173035
832783736684104448 380230 317837 331919 -173018
832783736702315392 380414 318040 331852 -173067
832783736720526336 380488 318159 331834 -173078
832783736738737408 380752 318348 331904 -173046
832783736756948352 380999 318682 331900 -173041
832783736775159296 381476 319168 331843 -173071
832783736793370240 382043 319672 331887 -173040
832783736811581184 382201 319833 331902 -173092
832783736829792128 381817 319467 331938 -173033
832783736848003072 381014 318686 331863 -173071
832783736866214144 380123 317749 331863 -173029
832783736884425088 379384 317059 331870 -173046
832783736902636054 379053 316737 331887 -173091
832783736920847488 379162 316855 331876 -173087
832783736939058944 379496 317229 331896 -173000
832783736957270272 379958 317619 331884 -173037
832783736975481728 380337 318002 331874 -173040
832783736993693056 380472 318101 331879 -173030
832783737011904512 380607 318224 331914 -172966
832783737030115840 380753 318353 331855 -173028
832783737048327296 381228 318808 331913 -172985
832783737066538624 381708 319333 331860 -173047
832783737084750080 382190 319815 331829 -173024
832783737102961536 382105 319707 331815 -173125
832783737121172864 381627 319312 331842 -173081
832783737139384320 380647 318429 331861 -173057
832783737157595648 379860 317529 331860 -173014
832783737175807104 379268 316938 331884 -173057
832783737194018432 379044 316691 331883 -173034
832783737212229888 379361 316949 331888 -172967
832783737230441216 379740 317355 331861 -173024
832783737248652672 380162 317760 331860 -173030
832783737266864000 380414 318047 331852 -173051
832783737285075456 380600 318156 331897 -173013
832783737303286912 380608 318246 331855 -173050
832783737321498240 380917 318480 331883 -173054
832783737339709696 381313 318932 331854 -173124
832783737357921024 381820 319451 331848 -173050
832783737376132480 382229 319745 331905 -173044
832783737394343808 381957 319621 331834 -173099
832783737412555264 381367 319003 331873 -173067
832783737430766592 380507 318151 331888 -172997
832783737448978048 379669 317279 331857 -173077
832783737467189504 379216 316800 331880 -173058
832783737485400832 379134 316697 331816 -173132
832783737503612288 379299 317010 331783 -173166
832783737521823616 379849 317473 331879 -173106
832783737540035006 380235 317858 331877 -173055
832783737558246528 380457 318125 331895 -173026
832783737576458112 380562 318221 331928 -173016
832783737594669824 380704 318312 331836 -173043
832783737612881408 381011 318627 331918 -172978
832783737631092992 381460 319182 331872 -173069
832783737649304576 381976 319635 331890 -173020
832783737667516288 382178 319826 331858 -173024
832783737685727872 381911 319479 331871 -173058
832783737703939456 381112 318729 331863 -173087
832783737722151040 380182 317820 331861 -173047
832783737740362752 379483 317084 331907 -173069
832783737758574336 379100 316735 331871 -173068
832783737776785920 379126 316863 331835 -173022
832783737794997504 379526 317155 331824 -173043
832783737813209216 379920 317568 331839 -173108
832783737831420800 380279 317877 331767 -173085
832783737849632384 380434 318122 331841 -173058
832783737867843968 380605 318209 331839 -173052
832783737886055680 380794 318396 331789 -173063
832783737904267264 381163 318742 331780 -173108
832783737922478848 381643 319278 331789 -173080
832783737940690432 382177 319825 331958 -173052
832783737958902144 382176 319754 331888 -173085
832783737977113728 381658 319257 331843 -172994
832783737995325312 380901 318603 331844 -173007
832783738013536896 379996 317654 331890 -173009
832783738031748608 379347 316981 331879 -172961
832783738049960192 379137 316742 331855 -173011
832783738068171776 379284 316938 331862 -173058
832783738086383360 379691 317318 331822 -173036
832783738104595072 380119 317777 331909 -173037
832783738122806656 380462 318011 331922 -173007
832783738141018240 380530 318148 331948 -173012
832783738159229824 380614 318141 331862 -172992
832783738177441586 380829 318484 331854 -173055
832783738195654016 381298 318932 331809 -173100
832783738213866496 381913 319513 331908 -173030
832783738232078976 382223 319837 331894 -173031
832783738250291456 382071 319679 331841 -173058
832783738268503936 381515 319063 331897 -173000
832783738286716416 380627 318139 331871 -173044
832783738304928896 379799 317345 331899 -173056
832783738323141376 379256 316799 331886 -173020
832783738341353984 379122 316740 331872 -173010
832783738359566464 379431 317080 331928 -172994
832783738377778944 379771 317506 331923 -172993
832783738395991424 380221 317855 331854 -173069
832783738414203904 380438 318075 331841 -173070
832783738432416384 380546 318201 331893 -173024
832783738450628864 380662 318226 331850 -173033
832783738468841344 380968 318595 331919 -173059
832783738487053824 381468 319031 331860 -173103
832783738505266304 382047 319695 331819 -173088
832783738523478784 382263 319846 331893 -173103
832783738541691264 381909 319547 331871 -173048
832783738559903744 381185 318822 331909 -173041
832783738578116224 380300 317897 331866 -173059
832783738596328704 379532 317154 331856 -173072
832783738614541312 379132 316704 331819 -173085
832783738632753792 379202 316769 331879 -173070
832783738650966272 379585 317161 331866 -173006
832783738669178752 379987 317584 331843 -173061
832783738687391232 380300 317921 331906 -173046
832783738705603712 380537 318093 331890 -172986
832783738723816192 380604 318226 331845 -173016
832783738742028672 380770 318384 331795 -173052
832783738760241152 381197 318772 331843 -173073
832783738778453632 381697 319330 331866 -173031
832783738796666112 382161 319770 331867 -173026
832783738814878684 382200 319790 331863 -173020
832783738833090304 381759 319380 331912 -173019
832783738851301888 380961 318573 331902 -172973
832783738869513600 380026 317656 331879 -173045
832783738887725184 379300 316941 331865 -173070
832783738905936768 379113 316756 331876 -173040
832783738924148352 379263 316890 331914 -173014
832783738942360064 379684 317314 331850 -173059
832783738960571648 380122 317698 331804 -173028
832783738978783232 380384 317991 331854 -173007
832783738996994816 380517 318167 331906 -173021
832783739015206528 380559 318242 331852 -173063
832783739033418112 380826 318497 331834 -173074
832783739051629696 381251 318939 331886 -173068
832783739069841280 381829 319464 331922 -173033
832783739088052992 382194 319824 331819 -173075
832783739106264576 382058 319743 331870 -173024
832783739124476160 381464 319206 331890 -173064
832783739142687744 380599 318251 331837 -173041
832783739160899456 379720 317404 331882 -173106
832783739179111040 379175 316823 331838 -173046
832783739197322624 379075 316763 331890 -173022
832783739215534208 379330 316979 331867 -173001
832783739233745920 379783 317444 331918 -173001
832783739251957504 380209 317868 331897 -173064
832783739270169088 380484 318090 331901 -172995
832783739288380672 380528 318237 331893 -173037
832783739306592384 380649 318314 331853 -173105
832783739324803968 380982 318628 331943 -173006
832783739343015552 381467 319121 331869 -173036
832783739361227136 381963 319627 331917 -173039
832783739379438848 382167 319902 331875 -173028
832783739397650432 381945 319666 331856 -173002
832783739415862016 381241 318960 331841 -173018
832783739434073600 380340 318001 331872 -173029
832783739452285312 379578 317202 331913 -173051
832783739470496870 379216 316771 331900 -173052
832783739488709376 379128 316791 331877 -173055
832783739506921856 379575 317193 331941 -172999
832783739525134336 379978 317636 331910 -172985
832783739543346816 380295 317991 331888 -172989
832783739561559296 380486 318111 331893 -173036
832783739579771776 380581 318266 331891 -173047
832783739597984256 380763 318400 331842 -173018
832783739616196736 381139 318843 331876 -173011
832783739634409344 381671 319303 331914 -173033
832783739652621824 382125 319785 331899 -173019
832783739670834304 382201 319872 331919 -172997
832783739689046784 381754 319492 331925 -173045
832783739707259264 380941 318647 331925 -172991
832783739725471744 380047 317717 331900 -173057
832783739743684224 379382 316988 331924 -172995
832783739761896704 379049 316720 331885 -172987
832783739780109184 379216 316868 331920 -173011
832783739798321664 379612 317292 331916 -173007
832783739816534144 380085 317761 331916 -173004
832783739834746624 380389 318019 331871 -173074
832783739852959104 380497 318155 331838 -173030
832783739871171584 380600 318259 331837 -173006
832783739889384064 380840 318404 331879 -173048
832783739907596672 381214 318836 331865 -173010
832783739925809152 381737 319424 331882 -173031
832783739944021632 382206 319856 331897 -173028
832783739962234112 382146 319756 331899 -173012
832783739980446592 381563 319179 331888 -173047
832783739998659072 380740 318379 331910 -173062
832783740016871552 379876 317483 331940 -173039
832783740035084032 379239 316894 331900 -173034
832783740053296512 379062 316826 331939 -172948
832783740071508992 379328 316997 331862 -173038
832783740089721472 379786 317433 331865 -173027
832783740107933968 380182 317820 331900 -173040
832783740126145280 380449 318103 331917 -173020
832783740144356608 380536 318169 331894 -173050
832783740162567808 380669 318328 331948 -172993
832783740180779136 380998 318633 331896 -173004
832783740198990336 381377 319104 331930 -173005
832783740217201664 381916 319593 331920 -173016
832783740235412864 382287 319915 331977 -173026
832783740253624192 381980 319670 331938 -173075
832783740271835392 381309 318987 331927 -173014
832783740290046720 380383 318032 331912 -173037
832783740308257920 379617 317282 331874 -173072
832783740326469248 379118 316786 331810 -173069
832783740344680448 379216 316800 331885 -173012
832783740362891776 379493 317084 331798 -173002
832783740381102976 379881 317533 331826 -173076
832783740399314304 380241 317937 331856 -173052
832783740417525504 380429 318127 331902 -173069
832783740435736832 380597 318230 331852 -173041
832783740453948160 380693 318348 331819 -173017
832783740472159360 381078 318716 331853 -173008
832783740490370688 381539 319232 331870 -173069
832783740508581888 382110 319707 331849 -173053
832783740526793216 382208 319884 331879 -173048
832783740545004416 381863 319451 331859 -173053
832783740563215744 381007 318662 331905 -173097
832783740581426944 380148 317708 331923 -173082
832783740599638272 379448 317085 331947 -173006
832783740617849472 379071 316783 331862 -173005
832783740636060800 379232 316875 331903 -173003
832783740654272000 379572 317266 331944 -172968
832783740672483328 380035 317681 331880 -173006
832783740690694528 380281 318028 331868 -173030
832783740708905856 380493 318154 331901 -173029
832783740727117056 380556 318212 331863 -173016
832783740745328342 380784 318515 331893 -172992
832783740763541248 381174 318861 331920 -173024
832783740781754112 381759 319410 331940 -172990
832783740799966976 382204 319828 331890 -173004
832783740818179840 382127 319766 331870 -173042
832783740836392832 381638 319268 331888 -173100
832783740854605696 380786 318383 331924 -173016
832783740872818560 379917 317533 331883 -172996
832783740891031424 379231 316850 331792 -173044
832783740909244288 379121 316763 331884 -173038
832783740927457152 379313 316970 331888 -173018
832783740945670016 379757 317422 331917 -172987
832783740963882880 380121 317806 331923 -173018
832783740982095872 380412 318060 331880 -173051
832783741000308736 380539 318220 331902 -173062
832783741018521600 380651 318348 331918 -173016
832783741036734464 380975 318582 331871 -173019
832783741054947328 381366 319015 331858 -173057
832783741073160192 381921 319573 331899 -173021
832783741091373056 382265 319891 331934 -172997
832783741109586048 381993 319671 331896 -173053
832783741127798912 381393 319061 331893 -173006
832783741146011776 380440 318107 331914 -173079
832783741164224640 379587 317241 331907 -173023
832783741182437504 379184 316850 331892 -173055
832783741200650368 379152 316775 331907 -173025
832783741218863232 379478 317168 331954 -173042
832783741237076096 379916 317564 331916 -173052
832783741255289088 380269 317905 331899 -173055
832783741273501952 380468 318087 331846 -173041
832783741291714816 380587 318177 331884 -173060
832783741309927680 380710 318327 331917 -173071
832783741328140544 381071 318704 331885 -173029
832783741346353408 381570 319184 331861 -173059
832783741364566272 382056 319710 331918 -173022
832783741382779172 382179 319881 331910 -173047
832783741400991616 381853 319465 331880 -173091
832783741419204096 381049 318734 331849 -173044
832783741437416448 380182 317821 331820 -173047
832783741455628928 379411 317096 331910 -172993
832783741473841408 379103 316715 331883 -173024
832783741492053888 379225 316891 331935 -172968
832783741510266240 379586 317191 331904 -173051
832783741528478720 380000 317626 331912 -173022
832783741546691200 380268 317953 331891 -173051
832783741564903680 380486 318121 331919 -173004
832783741583116032 380604 318283 331886 -173057
832783741601328512 380761 318473 331908 -173023
832783741619540992 381216 318849 331914 -173020
832783741637753344 381754 319301 331863 -173031
832783741655965824 382152 319805 331890 -173052
832783741674178304 382165 319723 331834 -173054
832783741692390784 381631 319267 331831 -173013
832783741710603136 380743 318439 331810 -173063
832783741728815616 379888 317599 331840 -173065
832783741747028096 379323 316968 331877 -173041
832783741765240448 379083 316780 331948 -173064
832783741783452928 379294 316924 331889 -173050
832783741801665408 379706 317391 331963 -173072
832783741819877888 380110 317773 331890 -173036
832783741838090240 380349 318013 331877 -173039
832783741856302720 380454 318187 331848 -173020
832783741874515200 380658 318319 331993 -172962
832783741892727680 380958 318532 331990 -172979
832783741910940032 381309 318991 331916 -173052
832783741929152512 381893 319535 331903 -173021
832783741947364992 382259 319948 331918 -172995
832783741965577344 382074 319791 331963 -173021
832783741983789824 381479 319117 331960 -173011
832783742002002304 380562 318218 331900 -173065
832783742020214734 379739 317403 331931 -172996
832783742038425984 379207 316828 331903 -173039
832783742056637184 379085 316786 331890 -173028
832783742074848384 379421 317036 331852 -173021
832783742093059712 379839 317517 331897 -173021
832783742111270912 380194 317806 331855 -173069
832783742129482112 380456 318125 331887 -173041
832783742147693312 380591 318335 331963 -172959
832783742165904512 380719 318422 331997 -172982
832783742184115840 381019 318631 331931 -173037
832783742202327040 381556 319189 331912 -173037
832783742220538240 382080 319710 331918 -173043
832783742238749440 382279 319895 331943 -173092
832783742256960640 381932 319597 331903 -173020
832783742275171840 381165 318796 331919 -173021
832783742293383168 380213 317901 331894 -173087
832783742311594368 379510 317138 331897 -173038
832783742329805568 379124 316706 331862 -173059
832783742348016768 379168 316784 331840 -173020
832783742366227968 379581 317200 331852 -173004
832783742384439296 379971 317637 331870 -173062
832783742402650496 380395 318012 331913 -173025
832783742420861696 380417 318099 331851 -173087
832783742439072896 380518 318212 331859 -173030
832783742457284096 380756 318411 331869 -173057
832783742475495424 381090 318778 331826 -173072
832783742493706624 381697 319334 331848 -173053
832783742511917824 382139 319737 331917 -173074
832783742530129024 382178 319791 331891 -173089
832783742548340224 381700 319318 331904 -173086
832783742566551424 380903 318559 331897 -173061
832783742584762752 379932 317628 331848 -173067
832783742602973952 379279 316973 331833 -173092
832783742621185152 379081 316720 331863 -173089
832783742639396352 379313 316868 331884 -173028
832783742657607582 379728 317304 331863 -173020
832783742675819520 380092 317754 331882 -173045
832783742694031488 380415 318039 331871 -173010
832783742712243584 380575 318201 331904 -173021
832783742730455552 380626 318266 331883 -173017
832783742748667520 380894 318488 331910 -173029
832783742766879616 381312 318964 331885 -173061
832783742785091584 381809 319504 331893 -173076
832783742803303552 382161 319927 331896 -173053
832783742821515648 382047 319721 331929 -173029
832783742839727616 381439 319088 331867 -173056
832783742857939584 380558 318253 331827 -173063
832783742876151680 379683 317397 331875 -173042
832783742894363648 379198 316839 331910 -172991
832783742912575616 379031 316702 331895 -173065
832783742930787584 379350 316997 331846 -173046
832783742948999680 379744 317442 331873 -172973
832783742967211648 380145 317852 331803 -173072
832783742985423616 380409 318081 331939 -173045
832783743003635712 380521 318167 331833 -173033
832783743021847680 380676 318355 331863 -173105
832783743040059648 380940 318603 331861 -173035
832783743058271744 381576 319322 331901 -173038
832783743076483712 382055 319632 331901 -173012
832783743094695680 382207 319915 331954 -173019
832783743112907776 382042 319609 332004 -172991
832783743131119744 381236 318890 331914 -173043
832783743149331712 380311 317993 331901 -173039
832783743167543808 379530 317205 331901 -173025
832783743185755776 379177 316812 331936 -172996
832783743203967744 379220 316792 331947 -172969
832783743222179840 379562 317163 331907 -172992
832783743240391808 379943 317580 331912 -173030
832783743258603776 380297 317956 331959 -173022
832783743276815872 380464 318105 331857 -173065
832783743295027894 380534 318184 331869 -173070
832783743313239552 380759 318357 331893 -173072
832783743331451264 381125 318800 331930 -173051
832783743349662848 381626 319327 331910 -173070
832783743367874560 382151 319779 331901 -173074
832783743386086144 382166 319796 331874 -173065
832783743404297856 381657 319331 331836 -173043
832783743422509568 380894 318515 331874 -173024
832783743440721152 380009 317667 331927 -173055
832783743458932864 379370 316966 331911 -173057
832783743477144448 379070 316708 331824 -173041
832783743495356160 379276 316918 331897 -173047
832783743513567872 379645 317316 331869 -173069
832783743531779456 380081 317731 331884 -173054
832783743549991168 380375 318004 331840 -173047
832783743568202752 380476 318162 331834 -173074
832783743586414464 380592 318258 331837 -173024
832783743604626176 380787 318428 331877 -173045
832783743622837760 381255 318910 331916 -173054
832783743641049472 381822 319452 331888 -172996
832783743659261056 382207 319821 331869 -173060
832783743677472768 382110 319724 331899 -173052
832783743695684352 381468 319114 331859 -173003
832783743713896064 380606 318238 331878 -173042
832783743732107776 379720 317396 331832 -173069
832783743750319360 379147 316822 331838 -173139
832783743768531072 379017 316737 331842 -173069
832783743786742656 379283 316941 331831 -173076
832783743804954368 379773 317401 331888 -173072
832783743823166080 380223 317779 331891 -173102
832783743841377664 380393 318020 331889 -173069
832783743859589376 380518 318147 331912 -173072
832783743877800960 380681 318285 331888 -173044
832783743896012672 380991 318613 331876 -173042
832783743914224384 381460 319076 331964 -173009
832783743932436000 381883 319556 331883 -173156
832783743950648448 382177 319808 331896 -173045
832783743968860928 382026 319619 331918 -172985
832783743987073280 381215 318921 331891 -173099
832783744005285760 380348 317960 331827 -173077
832783744023498240 379561 317192 331871 -173063
832783744041710720 379141 316761 331869 -173085
832783744059923072 379112 316793 331850 -173081
832783744078135552 379491 317114 331896 -173068
832783744096348032 379959 317569 331904 -173054
832783744114560512 380246 317879 331838 -173072
832783744132772864 380474 318098 331911 -173034
832783744150985344 380572 318175 331890 -173063
832783744169197824 380772 318449 331923 -173014
832783744187410176 381138 318728 331887 -173036
832783744205622656 381628 319277 331903 -173064
832783744223835136 382082 319672 331887 -173036
832783744242047616 382140 319809 331893 -173087
832783744260259968 381774 319388 331923 -173087
832783744278472448 380986 318631 331841 -173058
832783744296684928 380029 317749 331777 -173108
832783744314897280 379386 317060 331859 -173110
832783744333109760 379030 316688 331878 -173072
832783744351322240 379221 316854 331839 -173052
832783744369534720 379532 317227 331812 -173139
832783744387747072 380073 317703 331781 -173053
832783744405959552 380334 317926 331827 -173111
832783744424172032 380540 318144 331901 -173038
832783744442384512 380557 318243 331846 -173062
832783744460596864 380801 318478 331896 -173059
832783744478809344 381222 318864 331835 -173081
832783744497021824 381768 319433 331834 -173065
832783744515234176 382194 319788 331889 -173102
832783744533446656 382277 319900 331899 -173112
832783744551659136 381604 319214 331834 -173100
832783744569871562 380728 318336 331789 -173091
832783744588083200 379769 317340 331794 -173099
832783744606294784 379259 316922 331884 -173025
832783744624506496 379040 316682 331854 -173105
832783744642718080 379326 316977 331876 -173075
832783744660929664 379757 317372 331817 -173052
832783744679141248 380126 317813 331894 -173050
832783744697352960 380387 318042 331836 -173150
832783744715564544 380576 318175 331893 -173046
832783744733776128 380635 318268 331886 -173076
832783744751987712 380935 318551 331894 -173047
832783744770199424 381401 319047 331869 -173074
832783744788411008 381947 319601 331897 -173077
832783744806622592 382222 319857 331889 -173036
832783744824834176 381968 319593 331856 -173054
832783744843045888 381264 318954 331872 -173061
832783744861257472 380335 317999 331852 -173068
832783744879469056 379598 317265 331853 -173091
832783744897680640 379171 316750 331800 -173115
832783744915892352 379081 316685 331891 -173124
832783744934103936 379475 317019 331858 -173029
832783744952315520 379935 317496 331843 -173013
832783744970527104 380297 317854 331837 -173041
832783744988738816 380525 318016 331895 -173061
832783745006950400 380581 318152 331844 -173046
832783745025161984 380666 318263 331805 -173093
832783745043373568 381187 318765 331895 -173065
832783745061585280 381594 319206 331876 -173067
832783745079796864 381989 319683 331904 -173059
832783745098008448 382171 319854 331888 -173069
832783745116220032 381692 319436 331848 -173091
832783745134431744 380905 318643 331890 -173077
832783745152643328 380022 317695 331909 -173053
832783745170854912 379307 317032 331863 -173103
832783745189066496 379014 316712 331908 -173031
832783745207278142 379103 316833 331828 -173070
832783745225489664 379440 317202 331832 -173065
832783745243701248 379914 317686 331857 -173075
832783745261912960 380273 317983 331893 -173021
832783745280124544 380400 318134 331912 -173010
832783745298336128 380481 318207 331897 -173045
832783745316547712 380707 318376 331846 -173086
832783745334759424 381037 318752 331817 -173110
832783745352971008 381600 319279 331800 -173104
832783745371182592 382116 319794 331852 -173074
832783745389394176 382105 319725 331852 -173111
832783745407605888 381512 319215 331857 -173117
832783745425817472 380669 318372 331785 -173096
832783745444029056 379790 317421 331853 -173115
832783745462240640 379289 316852 331879 -173107
832783745480452352 379068 316626 331921 -173078
832783745498663936 379299 316870 331885 -173096
832783745516875520 379726 317283 331899 -173075
832783745535087104 380182 317680 331923 -173065
832783745553298816 380436 317929 331938 -173023
832783745571510400 380537 317998 331865 -173068
832783745589721984 380650 318228 331893 -173042
832783745607933568 380937 318462 331944 -173059
832783745626145280 381453 318878 331916 -173040
832783745644356864 381888 319512 331929 -173040
832783745662568448 382241 319785 331902 -173028
832783745680780032 382002 319673 331862 -173077
832783745698991744 381401 319004 331921 -173022
832783745717203328 380484 318053 331941 -173033
832783745735414912 379676 317210 331888 -173029
832783745753626496 379168 316707 331910 -173070
832783745771838208 379122 316628 331919 -173121
832783745790049792 379397 316932 331884 -173131
832783745808261376 379883 317394 331876 -173028
832783745826472960 380232 317791 331912 -173085
832783745844684672 380476 318038 331930 -173046
832783745862896338 380559 317985 331875 -173081
832783745881108736 380761 318269 331879 -173060
832783745899321088 381077 318585 331941 -173058
832783745917533568 381526 319039 331896 -173085
832783745935745920 381979 319481 331858 -173055
832783745953958400 382194 319724 331911 -173024
832783745972170752 381866 319469 331938 -173002
832783745990383104 381102 318608 331924 -173005
832783746008595584 380159 317709 331926 -173088
832783746026807936 379489 316973 331953 -173053
832783746045020288 379085 316537 331889 -173079
832783746063232768 379180 316724 331886 -173087
832783746081445120 379539 317124 331842 -173074
832783746099657600 380011 317496 331872 -173067
832783746117869952 380318 317840 331867 -173063
832783746136082304 380537 318056 331889 -173029
832783746154294784 380593 318098 331842 -173023
832783746172507136 380785 318339 331892 -173068
832783746190719616 381195 318691 331934 -173063
832783746208931968 381672 319181 331919 -173125
832783746227144320 382235 319671 331910 -173113
832783746245356800 382157 319637 331835 -173142
832783746263569152 381698 319210 331906 -173095
832783746281781504 380845 318400 331959 -173071
832783746299993984 379925 317505 331890 -173048
832783746318206336 379302 316886 331828 -173040
832783746336418816 379066 316628 331856 -173038
832783746354631168 379261 316804 331889 -173079
832783746372843520 379703 317229 331860 -173033
832783746391056000 380114 317615 331884 -173071
832783746409268352 380431 317937 331909 -173043
832783746427480832 380534 318037 331892 -173058
832783746445693184 380618 318169 331869 -173038
832783746463905536 380901 318410 331879 -173043
832783746482118016 381273 318787 331894 -173130
832783746500330384 381795 319338 331863 -173131
832783746518539776 382258 319720 331902 -173058
832783746536749184 382024 319594 331869 -173061
832783746554958464 381468 319005 331893 -173043
832783746573167872 380581 318072 331876 -173064
832783746591377152 379657 317199 331887 -173063
832783746609586560 379181 316738 331936 -173086
832783746627795840 379100 316688 331927 -173077
832783746646005248 379406 316867 331933 -173088
832783746664214528 379841 317357 331924 -173088
832783746682423936 380244 317758 331919 -173104
832783746700633216 380454 318017 331954 -173077
832783746718842624 380552 318127 331940 -173117
832783746737051904 380712 318215 331901 -173056
832783746755261312 381042 318595 331940 -173061
832783746773470720 381472 318995 331913 -173002
832783746791680000 382029 319519 331926 -173042
832783746809889408 382242 319777 331884 -173061
832783746828098688 381921 319433 331929 -173036
832783746846308096 381152 318651 331899 -173105
832783746864517376 380238 317787 331896 -173097
832783746882726784 379484 316967 331835 -173090
832783746900936064 379162 316629 331907 -173042
832783746919145472 379210 316709 331872 -173065
832783746937354752 379556 317090 331924 -173065
832783746955564160 379940 317538 331921 -173062
832783746973773568 380306 317853 331878 -173039
832783746991982848 380507 318023 331907 -173031
832783747010192256 380623 318132 331937 -173027
832783747028401536 380819 318304 331925 -173057
832783747046610944 381200 318707 331947 -173052
832783747064820224 381686 319193 331876 -173059
832783747083029632 382093 319666 331892 -173094
832783747101238912 382149 319645 331872 -173036
832783747119448320 381689 319237 331958 -173038
832783747137657604 380943 318394 331953 -173087
832783747155868928 380021 317495 331912 -173052
832783747174080256 379361 316897 331886 -173043
832783747192291584 379118 316622 331908 -173030
832783747210503040 379328 316852 331904 -173024
832783747228714368 379763 317240 331976 -173008
832783747246925696 380153 317680 331919 -173058
832783747265137024 380423 317911 331938 -173059
832783747283348352 380514 318077 331874 -173058
832783747301559808 380707 318230 331951 -173027
832783747319771136 380898 318387 331894 -173080
832783747337982464 381302 318832 331867 -173072
832783747356193792 381884 319359 331897 -173064
832783747374405248 382247 319791 331882 -173087
832783747392616576 382076 319616 331871 -173091
832783747410827904 381522 319019 331923 -173089
832783747429039232 380591 318171 331897 -173104
832783747447250560 379758 317296 331935 -173014
832783747465462016 379186 316772 331934 -173038
832783747483673344 379140 316666 331971 -173019
832783747501884672 379336 316897 331916 -173057
832783747520096000 379835 317362 331977 -173034
832783747538307328 380306 317832 331954 -173042
832783747556518784 380531 317995 331901 -173051
832783747574730112 380610 318082 331972 -173035
832783747592941440 380709 318233 331941 -173097
832783747611152768 381042 318496 331935 -173039
832783747629364224 381531 318985 331907 -173039
832783747647575552 382022 319534 331953 -173016
832783747665786880 382213 319774 331976 -173003
832783747683998208 381962 319444 331938 -173041
832783747702209536 381250 318787 331994 -173013
832783747720420992 380303 317846 331933 -173077
832783747738632320 379575 317098 331921 -173037
832783747756843648 379164 316660 331929 -173116
832783747775055032 379140 316673 331917 -173100
