TIMESTAMP PPG0 PPG1 PPG2 AMBIENT
832427868075566208 82045 513 -14193 -187327
832427868093747968 81922 457 -14286 -187364
832427868111929856 81811 427 -14329 -187373
832427868130111616 81742 349 -14341 -187380
832427868148293504 81861 383 -14321 -187361
832427868166475264 81923 483 -14230 -187366
832427868184657152 81894 437 -14286 -187334
832427868202838912 81914 438 -14279 -187309
832427868221020800 81960 488 -14322 -187303
832427868239202560 82045 540 -14195 -187302
832427868257384448 81999 501 -14261 -187379
832427868275566208 82011 521 -14267 -187352
832427868293747968 81932 471 -14259 -187318
832427868311929856 81889 436 -14314 -187349
832427868330111616 81902 481 -14202 -187338
832427868348293504 81827 428 -14290 -187356
832427868366475264 81877 438 -14268 -187291
832427868384657152 81834 409 -14339 -187322
832427868402838912 81974 444 -14243 -187343
832427868421020800 81993 479 -14225 -187325
832427868439202560 82037 514 -14187 -187360
832427868457384448 82037 457 -14182 -187320
832427868475566208 81959 449 -14189 -187349
832427868493747968 81838 469 -14302 -187375
832427868511929856 81795 411 -14282 -187368
832427868530111616 81877 379 -14275 -187328
832427868548293504 81937 423 -14222 -187312
832427868566475264 81959 455 -14303 -187340
832427868584657152 81943 482 -14259 -187333
832427868602838912 81905 452 -14227 -187333
832427868621020800 82073 530 -14259 -187288
832427868639202560 82046 500 -14227 -187323
832427868657384448 82062 458 -14161 -187326
832427868675566208 82011 498 -14236 -187350
832427868693747968 81850 429 -14319 -187379
832427868711929856 81739 397 -14320 -187333
832427868730111616 81795 375 -14340 -187357
832427868748293504 81878 395 -14226 -187307
832427868766475264 81926 404 -14253 -187343
832427868784657152 81974 470 -14247 -187384
832427868802838912 81987 485 -14286 -187327
832427868821020800 82066 520 -14222 -187321
832427868839202560 82015 511 -14254 -187360
832427868857384452 81995 532 -14298 -187362
832427868875597184 81852 412 -14306 -187371
832427868893809920 81840 396 -14304 -187364
832427868912022528 81736 328 -14356 -187367
832427868930235264 81732 361 -14355 -187385
832427868948447872 81867 419 -14327 -187368
832427868966660608 81912 431 -14233 -187334
832427868984873216 81859 427 -14250 -187325
832427869003085952 81921 423 -14247 -187354
832427869021298688 82056 485 -14226 -187335
832427869039511296 81999 388 -14288 -187387
832427869057724032 81960 421 -14284 -187333
832427869075936640 81857 411 -14288 -187320
832427869094149376 81797 372 -14301 -187355
832427869112361984 81787 367 -14322 -187429
832427869130574720 81787 407 -14295 -187384
832427869148787456 81837 406 -14298 -187375
832427869167000064 81887 389 -14342 -187426
832427869185212800 81858 371 -14315 -187372
832427869203425408 81912 417 -14273 -187335
832427869221638144 81989 457 -14265 -187335
832427869239850752 81997 465 -14276 -187364
832427869258063488 81931 444 -14220 -187351
832427869276276224 81805 383 -14316 -187349
832427869294488832 81768 383 -14337 -187387
832427869312701568 81834 384 -14355 -187385
832427869330914176 81874 360 -14348 -187421
832427869349126912 81843 371 -14273 -187405
832427869367339520 81932 389 -14282 -187400
832427869385552256 81925 414 -14302 -187418
832427869403764992 81963 455 -14265 -187384
832427869421977600 82015 463 -14240 -187401
832427869440190336 81988 441 -14269 -187410
832427869458402944 82003 478 -14239 -187353
832427869476615680 81824 405 -14307 -187358
832427869494828288 81732 379 -14331 -187318
832427869513041024 81801 304 -14337 -187410
832427869531253760 81871 380 -14318 -187411
832427869549466368 81879 385 -14276 -187434
832427869567679104 81901 420 -14333 -187401
832427869585891712 81866 378 -14325 -187408
832427869604104448 81954 457 -14311 -187367
832427869622317056 82047 481 -14308 -187338
832427869640529738 82013 566 -14246 -187358
832427869658744704 81955 481 -14294 -187377
832427869676959616 81812 400 -14285 -187381
832427869695174528 81758 347 -14318 -187376
832427869713389440 81821 358 -14375 -187417
832427869731604352 81939 376 -14357 -187336
832427869749819264 81909 395 -14345 -187420
832427869768034176 81904 369 -14350 -187418
832427869786249088 81922 426 -14286 -187349
832427869804463872 82012 474 -14273 -187383
832427869822678784 81986 475 -14297 -187387
832427869840893696 81927 397 -14280 -187353
832427869859108608 81924 435 -14259 -187353
832427869877323520 81799 371 -14369 -187393
832427869895538432 81786 316 -14363 -187342
832427869913753344 81767 368 -14340 -187372
832427869931968256 81888 428 -14281 -187333
832427869950183168 81903 395 -14301 -187378
832427869968398080 81951 434 -14345 -187383
832427869986612992 82014 439 -14270 -187349
832427870004827904 82034 462 -14223 -187319
832427870023042816 82039 515 -14178 -187267
832427870041257728 81956 472 -14233 -187321
832427870059472512 81891 451 -14231 -187359
832427870077687424 81733 364 -14298 -187377
832427870095902336 81769 399 -14324 -187376
832427870114117248 81822 370 -14367 -187369
832427870132332160 81841 412 -14342 -187409
832427870150547072 81929 444 -14290 -187324
832427870168761984 81990 407 -14299 -187404
832427870186976896 81959 440 -14267 -187354
832427870205191808 82040 537 -14192 -187364
832427870223406720 82568 798 -14047 -187363
832427870241621632 83138 1071 -13874 -187404
832427870259836544 83217 1130 -13840 -187397
832427870278051456 82840 918 -13943 -187316
832427870296266368 82370 657 -14134 -187368
832427870314481152 81818 321 -14341 -187346
832427870332696064 81327 111 -14513 -187308
832427870350910958 80945 -125 -14665 -187368
832427870369126272 80751 -196 -14736 -187369
832427870387341568 80868 -247 -14693 -187395
832427870405556736 80984 -111 -14581 -187341
832427870423772032 81249 99 -14541 -187343
832427870441987200 81610 273 -14435 -187308
832427870460202496 81897 423 -14291 -187364
832427870478417792 82277 589 -14181 -187374
832427870496632960 82593 825 -14052 -187352
832427870514848256 82907 923 -13930 -187388
832427870533063424 83130 992 -13881 -187390
832427870551278720 83266 1084 -13770 -187339
832427870569494016 83324 1110 -13745 -187350
832427870587709184 83413 1251 -13728 -187342
832427870605924480 83649 1326 -13625 -187318
832427870624139648 83925 1471 -13522 -187338
832427870642354944 84177 1649 -13432 -187344
832427870660570240 84484 1776 -13303 -187320
832427870678785408 84805 1930 -13228 -187351
832427870697000704 85252 2207 -13004 -187370
832427870715216000 85435 2270 -12958 -187354
832427870733431168 85229 2224 -13032 -187322
832427870751646464 84681 1926 -13268 -187357
832427870769861632 83985 1554 -13541 -187372
832427870788076928 83257 1130 -13795 -187383
832427870806292224 82477 779 -14069 -187333
832427870824507392 81794 317 -14302 -187387
832427870842722688 81207 95 -14511 -187414
832427870860937856 80716 -152 -14706 -187388
832427870879153152 80652 -216 -14737 -187357
832427870897368448 80718 -113 -14713 -187372
832427870915583616 81049 -5 -14549 -187354
832427870933798912 81442 241 -14437 -187366
832427870952014080 81938 414 -14272 -187362
832427870970229376 82284 639 -14107 -187384
832427870988444672 82681 909 -14002 -187343
832427871006659840 82913 974 -13837 -187334
832427871024875048 83111 1085 -13803 -187289
832427871043089664 83132 1034 -13845 -187312
832427871061304320 83114 1093 -13764 -187323
832427871079518976 83269 1153 -13742 -187356
832427871097733632 83489 1324 -13667 -187326
832427871115948288 83808 1403 -13578 -187366
832427871134162944 84127 1657 -13414 -187316
832427871152377728 84417 1781 -13280 -187345
832427871170592384 84941 1993 -13203 -187362
832427871188807040 85385 2226 -13007 -187308
832427871207021696 85551 2301 -12962 -187315
832427871225236352 85348 2278 -12954 -187323
832427871243451008 84879 1983 -13160 -187371
832427871261665664 84146 1681 -13444 -187410
832427871279880320 83470 1266 -13724 -187337
832427871298094976 82746 867 -13975 -187372
832427871316309632 82027 477 -14229 -187356
832427871334524416 81431 119 -14435 -187344
832427871352739072 81075 -16 -14544 -187288
832427871370953728 80912 -67 -14616 -187335
832427871389168384 80866 -123 -14654 -187319
832427871407383040 80993 -63 -14619 -187326
832427871425597696 81270 125 -14520 -187401
832427871443812352 81629 362 -14328 -187315
832427871462027008 81877 440 -14304 -187413
832427871480241664 82352 637 -14109 -187427
832427871498456320 82728 842 -14067 -187388
832427871516671104 82975 941 -13949 -187439
832427871534885760 83132 1092 -13851 -187373
832427871553100416 83233 1060 -13819 -187432
832427871571315072 83344 1172 -13763 -187380
832427871589529728 83439 1190 -13767 -187367
832427871607744384 83618 1336 -13657 -187352
832427871625959040 83777 1394 -13602 -187362
832427871644173696 84056 1557 -13506 -187396
832427871662388352 84515 1810 -13318 -187328
832427871680603008 84976 2035 -13116 -187392
832427871698817776 85364 2275 -13005 -187369
832427871717031808 85402 2278 -12994 -187387
832427871735245824 85207 2173 -13057 -187385
832427871753459840 84711 1881 -13246 -187364
832427871771673856 83969 1535 -13427 -187373
832427871789887872 83192 1079 -13812 -187391
832427871808101888 82338 611 -14161 -187396
832427871826315904 81636 262 -14386 -187386
832427871844529920 81077 -32 -14635 -187409
832427871862743936 80831 -167 -14700 -187336
832427871880957952 80709 -196 -14710 -187366
832427871899171968 80884 -152 -14693 -187355
832427871917385984 81125 -7 -14599 -187376
832427871935600000 81524 141 -14421 -187377
832427871953814016 81863 366 -14302 -187354
832427871972028032 82269 665 -14126 -187363
832427871990242048 82644 904 -13918 -187346
832427872008456064 82896 995 -13865 -187343
832427872026670080 83058 1014 -13848 -187361
832427872044884096 83031 991 -13888 -187389
832427872063098112 83170 1104 -13813 -187343
832427872081312128 83233 1139 -13780 -187409
832427872099526144 83435 1252 -13701 -187389
832427872117740160 83683 1338 -13644 -187393
832427872135954176 84021 1607 -13521 -187397
832427872154168192 84462 1751 -13345 -187355
832427872172382208 84921 2008 -13146 -187327
832427872190596224 85296 2205 -12999 -187339
832427872208810240 85468 2262 -12975 -187338
832427872227024256 85205 2157 -13128 -187356
832427872245238272 84649 1915 -13215 -187378
832427872263452288 84146 1641 -13439 -187356
832427872281666304 83459 1243 -13742 -187411
832427872299880320 82737 793 -14012 -187404
832427872318094336 81922 467 -14303 -187376
832427872336308272 81361 159 -14513 -187370
832427872354520832 81048 -17 -14618 -187401
832427872372733440 80911 -117 -14682 -187385
832427872390946176 80761 -147 -14711 -187363
832427872409158784 80989 -71 -14602 -187339
832427872427371392 81192 36 -14580 -187397
832427872445584128 81556 192 -14486 -187366
832427872463796736 81998 433 -14259 -187341
832427872482009344 82458 700 -14124 -187347
832427872500221952 82744 814 -14030 -187397
832427872518434688 83065 997 -13813 -187324
832427872536647296 83236 1121 -13783 -187341
832427872554859904 83343 1146 -13784 -187362
832427872573072640 83367 1235 -13735 -187369
832427872591285248 83399 1214 -13786 -187377
832427872609497856 83559 1324 -13639 -187380
832427872627710592 83753 1401 -13629 -187419
832427872645923200 84191 1561 -13470 -187364
832427872664135808 84600 1804 -13275 -187361
832427872682348544 85081 2106 -13132 -187337
832427872700561152 85399 2240 -13005 -187362
832427872718773760 85505 2342 -12993 -187338
832427872736986368 85267 2161 -13038 -187329
832427872755199104 84752 1941 -13201 -187343
832427872773411712 83949 1557 -13536 -187380
832427872791624320 83114 1061 -13815 -187340
832427872809837056 82322 634 -14115 -187361
832427872828049664 81553 242 -14335 -187342
832427872846262272 81103 26 -14547 -187334
832427872864475008 80765 -200 -14670 -187278
832427872882687616 80737 -176 -14682 -187293
832427872900900224 80899 -94 -14638 -187304
832427872919112960 81242 37 -14511 -187309
832427872937325568 81664 266 -14395 -187295
832427872955538176 82097 468 -14207 -187319
832427872973750784 82403 667 -14150 -187340
832427872991963520 82690 798 -14022 -187371
832427873010176230 82828 951 -13909 -187390
832427873028390272 82902 943 -13913 -187384
832427873046604288 83034 1040 -13848 -187373
832427873064818304 83169 1109 -13818 -187379
832427873083032320 83344 1158 -13813 -187337
832427873101246336 83469 1268 -13706 -187350
832427873119460352 83857 1282 -13612 -187355
832427873137674368 84246 1609 -13428 -187342
832427873155888384 84551 1821 -13290 -187324
832427873174102400 84888 2015 -13184 -187289
832427873192316288 85409 2269 -12974 -187276
832427873210530304 85431 2282 -12977 -187300
832427873228744320 85191 2168 -13061 -187305
832427873246958336 84834 1979 -13156 -187351
832427873265172352 84153 1701 -13368 -187354
832427873283386368 83464 1236 -13709 -187351
832427873301600384 82702 785 -14007 -187356
832427873319814400 81993 434 -14235 -187326
832427873338028416 81502 201 -14404 -187369
832427873356242432 81006 -33 -14602 -187402
832427873374456448 80901 -132 -14674 -187381
832427873392670464 80747 -144 -14663 -187339
832427873410884480 80889 -90 -14647 -187368
832427873429098496 81390 69 -14474 -187394
832427873447312512 81722 330 -14335 -187410
832427873465526528 81936 563 -14222 -187396
832427873483740544 82459 692 -14072 -187414
832427873501954432 82914 877 -13953 -187380
832427873520168448 83056 1064 -13859 -187392
832427873538382464 83274 1118 -13715 -187311
832427873556596480 83272 1181 -13764 -187376
832427873574810496 83304 1173 -13763 -187376
832427873593024512 83363 1200 -13767 -187386
832427873611238528 83573 1321 -13743 -187391
832427873629452544 83797 1461 -13627 -187371
832427873647666560 84256 1632 -13435 -187395
832427873665880576 84692 1919 -13283 -187370
832427873684094546 85114 2144 -13127 -187369
832427873702309248 85351 2270 -13028 -187330
832427873720523904 85405 2286 -13012 -187357
832427873738738560 85164 2167 -13050 -187338
832427873756953216 84548 1886 -13271 -187376
832427873775167872 83819 1390 -13556 -187329
832427873793382528 82881 982 -13915 -187351
832427873811597312 82130 521 -14234 -187342
832427873829811968 81460 160 -14413 -187320
832427873848026624 80989 -26 -14623 -187315
832427873866241280 80788 -176 -14686 -187360
832427873884455936 80752 -213 -14691 -187352
832427873902670592 80860 -107 -14618 -187330
832427873920885248 81297 69 -14516 -187323
832427873939099904 81726 325 -14309 -187322
832427873957314560 82040 483 -14230 -187328
832427873975529216 82466 700 -14040 -187305
832427873993744000 82601 761 -14025 -187352
832427874011958656 82870 951 -13898 -187303
832427874030173312 83146 1111 -13741 -187305
832427874048387968 83153 1095 -13768 -187355
832427874066602624 83276 1129 -13731 -187268
832427874084817280 83450 1187 -13697 -187308
832427874103031936 83585 1289 -13649 -187347
832427874121246592 83939 1478 -13534 -187371
832427874139461248 84281 1713 -13358 -187337
832427874157675904 84635 1886 -13253 -187347
832427874175890688 84933 2044 -13139 -187360
832427874194105344 85272 2206 -13033 -187366
832427874212320000 85383 2258 -13025 -187352
832427874230534656 85238 2239 -13032 -187321
832427874248749312 84800 1915 -13205 -187377
832427874266963968 84061 1553 -13435 -187374
832427874285178624 83282 1143 -13680 -187402
832427874303393280 82542 787 -14045 -187384
832427874321607936 81937 376 -14264 -187423
832427874339822592 81359 134 -14437 -187391
832427874358037274 80992 -90 -14579 -187418
832427874376251008 80740 -256 -14687 -187421
832427874394464768 80675 -170 -14669 -187405
832427874412678400 80906 -158 -14679 -187378
832427874430892160 81304 110 -14509 -187375
832427874449105920 81760 316 -14357 -187375
832427874467319552 82146 514 -14179 -187428
832427874485533312 82551 706 -14065 -187384
832427874503747072 82915 953 -13913 -187358
832427874521960704 83143 1046 -13773 -187353
832427874540174464 83370 1187 -13749 -187295
832427874558388224 83235 1165 -13726 -187335
832427874576601984 83302 1110 -13764 -187378
832427874594815616 83393 1246 -13733 -187301
832427874613029376 83602 1318 -13653 -187353
832427874631243136 83902 1484 -13536 -187335
832427874649456768 84348 1656 -13388 -187371
832427874667670528 84738 1929 -13210 -187362
832427874685884288 85228 2219 -13034 -187322
832427874704097920 85542 2345 -12925 -187351
832427874722311680 85510 2428 -12872 -187320
832427874740525440 85203 2212 -13027 -187346
832427874758739072 84559 1893 -13237 -187360
832427874776952832 83701 1421 -13599 -187341
832427874795166592 82847 977 -13852 -187321
832427874813380224 82024 505 -14166 -187379
832427874831593984 81446 182 -14430 -187356
832427874849807744 81091 9 -14534 -187352
832427874868021504 80838 -115 -14633 -187326
832427874886235136 80797 -141 -14649 -187336
832427874904448896 81007 -32 -14584 -187370
832427874922662656 81337 93 -14461 -187323
832427874940876288 81722 325 -14303 -187335
832427874959090048 82045 492 -14219 -187392
832427874977303808 82387 678 -14074 -187364
832427874995517440 82590 755 -13999 -187347
832427875013731200 82921 993 -13847 -187310
832427875031944906 83132 1061 -13830 -187294
832427875050158080 83187 1048 -13792 -187312
832427875068371200 83207 1097 -13827 -187368
832427875086584320 83330 1213 -13700 -187368
832427875104797568 83610 1323 -13616 -187369
832427875123010688 83913 1454 -13521 -187406
832427875141223808 84251 1659 -13461 -187350
832427875159436928 84567 1831 -13304 -187364
832427875177650048 84927 2004 -13207 -187398
832427875195863168 85306 2240 -13049 -187388
832427875214076416 85377 2276 -12965 -187440
832427875232289536 85208 2203 -13026 -187401
832427875250502656 84779 1953 -13207 -187353
832427875268715776 84096 1557 -13442 -187344
832427875286928896 83364 1223 -13759 -187322
832427875305142016 82589 750 -14012 -187335
832427875323355264 81924 450 -14225 -187328
832427875341568384 81344 119 -14472 -187355
832427875359781504 80902 -98 -14633 -187379
832427875377994624 80677 -241 -14654 -187346
832427875396207744 80659 -277 -14706 -187371
832427875414420864 81001 -99 -14586 -187350
832427875432634112 81426 191 -14413 -187334
832427875450847232 81740 419 -14318 -187380
832427875469060352 82268 617 -14167 -187345
832427875487273472 82680 791 -14056 -187353
832427875505486592 82987 956 -13929 -187359
832427875523699840 83194 1077 -13834 -187337
832427875541912960 83223 1143 -13758 -187383
832427875560126080 83243 1045 -13832 -187367
832427875578339200 83220 1110 -13790 -187344
832427875596552320 83394 1165 -13735 -187366
832427875614765440 83677 1342 -13610 -187361
832427875632978688 84028 1518 -13446 -187362
832427875651191808 84445 1759 -13317 -187370
832427875669404928 84803 1931 -13129 -187359
832427875687618026 85325 2213 -12958 -187343
832427875705832704 85531 2306 -12907 -187371
832427875724047360 85473 2282 -12982 -187401
832427875742262016 85057 2043 -13104 -187319
832427875760476544 84314 1709 -13347 -187378
832427875778691200 83471 1234 -13717 -187357
832427875796905856 82753 824 -13998 -187425
832427875815120512 81988 463 -14313 -187405
832427875833335040 81538 209 -14446 -187377
832427875851549696 81063 -49 -14588 -187381
832427875869764352 80869 -125 -14639 -187317
832427875887979008 80865 -184 -14684 -187344
832427875906193536 81024 -29 -14633 -187357
832427875924408192 81358 94 -14501 -187381
832427875942622848 81673 274 -14394 -187321
832427875960837504 81980 507 -14261 -187336
832427875979052032 82297 644 -14130 -187366
832427875997266688 82674 825 -14005 -187358
832427876015481344 82992 1019 -13894 -187401
832427876033696000 83168 1170 -13797 -187317
832427876051910528 83242 1156 -13807 -187358
832427876070125184 83333 1167 -13780 -187367
832427876088339840 83428 1170 -13728 -187364
832427876106554496 83644 1356 -13632 -187367
832427876124769024 83898 1484 -13587 -187404
832427876142983680 84169 1655 -13405 -187396
832427876161198336 84436 1736 -13330 -187379
832427876179412992 84938 2008 -13150 -187370
832427876197627520 85343 2290 -12955 -187304
832427876215842176 85434 2318 -12967 -187391
832427876234056832 85233 2213 -13034 -187381
832427876252271488 84665 1881 -13297 -187401
832427876270486016 83996 1576 -13480 -187311
832427876288700672 83256 1126 -13758 -187370
832427876306915328 82429 730 -14024 -187380
832427876325129894 81712 311 -14292 -187395
832427876343343232 81088 -15 -14588 -187395
832427876361556608 80750 -186 -14771 -187338
832427876379769984 80698 -246 -14792 -187354
832427876397983360 80827 -231 -14694 -187372
832427876416196736 81158 -58 -14625 -187390
832427876434410240 81534 188 -14473 -187341
832427876452623616 81987 434 -14194 -187317
832427876470836992 82399 672 -14088 -187333
832427876489050368 82731 884 -13964 -187300
832427876507263744 82899 949 -13853 -187369
832427876525477120 83075 992 -13796 -187354
832427876543690496 83095 1129 -13755 -187353
832427876561903872 83109 1020 -13850 -187333
832427876580117248 83254 1194 -13776 -187337
832427876598330752 83460 1298 -13680 -187375
832427876616544128 83816 1430 -13540 -187349
832427876634757504 84171 1575 -13457 -187354
832427876652970880 84531 1788 -13251 -187330
832427876671184256 84961 2053 -13107 -187363
832427876689397632 85407 2276 -12965 -187301
832427876707611008 85585 2384 -12928 -187362
832427876725824384 85369 2272 -12929 -187318
832427876744037760 84812 1985 -13135 -187337
832427876762251136 84194 1623 -13452 -187313
832427876780464640 83415 1285 -13765 -187387
832427876798678016 82705 846 -14006 -187359
832427876816891392 82020 464 -14246 -187379
832427876835104768 81476 145 -14441 -187354
832427876853318144 81032 -64 -14611 -187339
832427876871531520 80915 -151 -14670 -187345
832427876889744896 80877 -84 -14636 -187368
832427876907958272 80972 5 -14616 -187369
832427876926171648 81232 122 -14516 -187375
832427876944385152 81576 238 -14411 -187374
832427876962598528 81995 447 -14270 -187387
832427876980811904 82416 704 -14103 -187325
832427876999025318 82757 864 -13944 -187322
832427877017238784 83033 1109 -13844 -187315
832427877035452288 83162 1157 -13764 -187344
832427877053665792 83250 1154 -13767 -187366
832427877071879168 83365 1184 -13706 -187359
832427877090092672 83474 1290 -13687 -187306
832427877108306176 83657 1386 -13572 -187311
832427877126519680 83885 1487 -13563 -187381
832427877144733056 84066 1613 -13461 -187362
832427877162946560 84550 1784 -13280 -187345
832427877181160064 85023 2026 -13137 -187310
832427877199373568 85405 2294 -12992 -187342
832427877217586944 85457 2299 -13038 -187353
832427877235800448 85176 2133 -13136 -187346
832427877254013952 84755 1916 -13286 -187346
832427877272227456 84010 1536 -13484 -187351
832427877290440832 83238 1080 -13783 -187376
832427877308654336 82392 731 -14103 -187452
832427877326867840 81635 228 -14403 -187360
832427877345081344 80992 -54 -14635 -187420
832427877363294720 80725 -185 -14741 -187431
832427877381508224 80708 -209 -14768 -187371
832427877399721728 80846 -129 -14622 -187398
832427877417935232 81248 65 -14511 -187368
832427877436148608 81651 212 -14380 -187319
832427877454362112 82056 460 -14184 -187378
832427877472575616 82434 707 -14047 -187343
832427877490789120 82733 822 -13962 -187361
832427877509002496 82934 904 -13947 -187369
832427877527216000 82984 999 -13846 -187342
832427877545429504 83018 1013 -13878 -187368
832427877563643008 83090 1049 -13851 -187409
832427877581856384 83283 1166 -13716 -187333
832427877600069888 83476 1255 -13671 -187385
832427877618283392 83759 1397 -13644 -187391
832427877636496896 84115 1590 -13474 -187355
832427877654710272 84596 1798 -13321 -187353
832427877672923796 84933 1998 -13231 -187375
832427877691137408 85324 2198 -13040 -187373
832427877709351040 85451 2320 -12910 -187309
832427877727564672 85269 2155 -13080 -187404
832427877745778304 84873 1919 -13244 -187379
832427877763992064 84225 1653 -13425 -187380
832427877782205696 83425 1251 -13711 -187377
832427877800419328 82703 854 -14003 -187376
832427877818632960 81965 458 -14270 -187393
832427877836846592 81439 143 -14445 -187380
832427877855060224 81030 -111 -14632 -187402
832427877873273856 80839 -200 -14686 -187419
832427877891487616 80839 -234 -14684 -187383
832427877909701248 80918 -146 -14655 -187419
832427877927914880 81207 11 -14597 -187373
832427877946128512 81646 295 -14357 -187356
832427877964342144 82106 512 -14214 -187293
832427877982555776 82471 726 -14042 -187367
832427878000769536 82843 955 -13914 -187341
832427878018983168 83027 1054 -13871 -187357
832427878037196800 83216 1089 -13843 -187384
832427878055410432 83377 1177 -13823 -187406
832427878073624064 83321 1168 -13794 -187417
832427878091837696 83465 1263 -13691 -187323
832427878110051328 83589 1352 -13699 -187333
832427878128265088 83747 1371 -13629 -187414
832427878146478720 84124 1520 -13483 -187368
832427878164692352 84650 1798 -13260 -187423
832427878182905984 85131 2122 -13092 -187357
832427878201119616 85394 2292 -12973 -187369
832427878219333248 85408 2283 -12974 -187414
832427878237546880 85196 2116 -13034 -187336
832427878255760640 84632 1866 -13185 -187395
832427878273974272 83900 1451 -13542 -187383
832427878292187904 83079 1032 -13792 -187301
832427878310401536 82201 597 -14123 -187352
832427878328615234 81461 211 -14391 -187349
832427878346829312 80979 -33 -14592 -187375
832427878365043328 80801 -171 -14670 -187319
832427878383257344 80733 -234 -14714 -187377
832427878401471232 80867 -110 -14689 -187358
832427878419685248 81217 23 -14555 -187392
832427878437899264 81598 300 -14410 -187392
832427878456113280 82026 499 -14230 -187340
832427878474327296 82402 663 -14114 -187350
832427878492541184 82663 836 -13988 -187372
832427878510755200 82842 951 -13930 -187366
832427878528969216 82969 967 -13885 -187319
832427878547183232 83155 1082 -13802 -187337
832427878565397248 83230 1079 -13819 -187347
832427878583611136 83291 1099 -13790 -187426
832427878601825152 83452 1307 -13673 -187370
832427878620039168 83805 1433 -13537 -187344
832427878638253184 84135 1650 -13473 -187347
832427878656467200 84536 1828 -13319 -187319
832427878674681088 84980 2083 -13164 -187345
832427878692895104 85227 2255 -13075 -187373
832427878711109120 85295 2249 -13007 -187320
832427878729323136 85210 2177 -13005 -187311
832427878747537152 84780 1976 -13278 -187374
832427878765751040 84133 1643 -13495 -187410
832427878783965056 83410 1212 -13807 -187380
832427878802179072 82676 747 -14042 -187373
832427878820393088 81965 396 -14293 -187398
832427878838607104 81445 144 -14503 -187368
832427878856820992 80988 -61 -14638 -187413
832427878875035008 80793 -194 -14736 -187380
832427878893249024 80736 -194 -14682 -187384
832427878911463040 80904 -173 -14644 -187379
832427878929677056 81272 90 -14499 -187352
832427878947890944 81733 313 -14338 -187345
832427878966104960 82173 564 -14211 -187345
832427878984318880 82521 741 -14152 -187310
832427879002532736 82845 905 -13998 -187363
832427879020746624 83151 1044 -13848 -187342
832427879038960640 83261 1175 -13783 -187358
832427879057174528 83348 1157 -13774 -187380
832427879075388416 83305 1114 -13748 -187362
832427879093602304 83410 1201 -13722 -187405
832427879111816320 83529 1296 -13674 -187337
832427879130030208 83876 1497 -13559 -187362
832427879148244096 84212 1672 -13467 -187385
832427879166458112 84692 1868 -13271 -187333
832427879184672000 85190 2171 -13078 -187341
832427879202885888 85484 2320 -12988 -187429
832427879221099776 85546 2307 -12967 -187375
832427879239313792 85236 2141 -13074 -187409
832427879257527680 84635 1838 -13285 -187351
832427879275741568 83760 1468 -13591 -187380
832427879293955584 82933 997 -13888 -187356
832427879312169472 82099 550 -14261 -187426
832427879330383360 81525 195 -14477 -187398
832427879348597248 81107 22 -14592 -187354
832427879366811264 80876 -207 -14684 -187343
832427879385025152 80788 -196 -14676 -187398
832427879403239040 80932 -169 -14652 -187340
832427879421453056 81326 97 -14517 -187338
832427879439666944 81691 303 -14356 -187342
832427879457880832 82112 564 -14169 -187283
832427879476094720 82329 633 -14164 -187401
832427879494308736 82593 792 -14004 -187387
832427879512522624 82864 958 -13908 -187361
832427879530736512 83026 1010 -13892 -187418
832427879548950528 83208 1111 -13818 -187419
832427879567164416 83248 1147 -13789 -187409
832427879585378304 83387 1143 -13688 -187361
832427879603592192 83567 1245 -13679 -187405
832427879621806208 83923 1501 -13485 -187395
832427879640020096 84209 1628 -13385 -187391
832427879658233984 84513 1828 -13303 -187319
832427879676448000 84944 2053 -13179 -187385
832427879694661944 85234 2283 -13027 -187326
832427879712876544 85370 2258 -13040 -187362
832427879731091200 85179 2179 -13089 -187401
832427879749305856 84773 1915 -13197 -187370
832427879767520384 84063 1565 -13478 -187344
832427879785735040 83352 1198 -13729 -187315
832427879803949696 82514 738 -14046 -187328
832427879822164352 81874 396 -14252 -187346
832427879840378880 81288 114 -14521 -187333
832427879858593536 80898 -68 -14637 -187355
832427879876808192 80690 -216 -14708 -187377
832427879895022848 80697 -222 -14699 -187374
832427879913237376 80948 -68 -14608 -187378
832427879931452032 81362 113 -14527 -187402
832427879949666688 81841 395 -14323 -187341
832427879967881344 82209 568 -14189 -187350
832427879986095872 82596 785 -14036 -187356
832427880004310528 82974 978 -13899 -187394
832427880022525184 83184 1140 -13812 -187341
832427880040739840 83277 1172 -13723 -187277
832427880058954368 83240 1104 -13825 -187320
832427880077169024 83220 1121 -13806 -187361
832427880095383680 83327 1222 -13745 -187322
832427880113598336 83644 1376 -13620 -187288
832427880131812864 84047 1596 -13509 -187352
832427880150027520 84364 1729 -13380 -187350
832427880168242176 84713 1929 -13193 -187353
832427880186456832 85217 2224 -12985 -187369
832427880204671360 85586 2360 -12822 -187371
832427880222886016 85562 2412 -12916 -187339
832427880241100672 85111 2126 -13084 -187343
832427880259315328 84456 1792 -13368 -187387
832427880277529856 83682 1321 -13654 -187370
832427880295744512 82849 822 -13946 -187402
832427880313959168 82093 498 -14269 -187424
832427880332173812 81516 206 -14438 -187354
832427880350388096 81103 -29 -14611 -187371
832427880368602368 80815 -106 -14654 -187406
832427880386816512 80741 -202 -14703 -187385
832427880405030784 80982 -60 -14621 -187374
832427880423244928 81327 158 -14524 -187325
832427880441459200 81657 336 -14414 -187347
832427880459673344 82009 467 -14243 -187356
832427880477887616 82324 654 -14102 -187361
832427880496101760 82652 840 -13999 -187345
832427880514316032 82930 984 -13913 -187361
832427880532530304 83179 1041 -13876 -187369
832427880550744448 83243 1112 -13796 -187320
832427880568958720 83238 1067 -13833 -187377
832427880587172864 83334 1138 -13821 -187394
832427880605387136 83624 1316 -13668 -187419
832427880623601280 83870 1460 -13525 -187405
832427880641815552 84175 1562 -13504 -187398
832427880660029696 84484 1738 -13294 -187417
832427880678243968 84792 1973 -13193 -187389
832427880696458112 85249 2201 -13023 -187392
832427880714672384 85371 2242 -13011 -187371
832427880732886656 85168 2151 -13081 -187372
832427880751100800 84702 1850 -13263 -187387
832427880769315072 84001 1498 -13517 -187371
832427880787529216 83345 1145 -13752 -187371
832427880805743488 82568 784 -14059 -187347
832427880823957632 81836 411 -14395 -187381
832427880842171904 81314 65 -14501 -187337
832427880860386048 80770 -157 -14752 -187326
832427880878600320 80559 -244 -14769 -187333
832427880896814592 80699 -148 -14663 -187368
832427880915028736 81055 -73 -14538 -187336
832427880933243008 81503 173 -14383 -187301
832427880951457152 81867 334 -14297 -187378
832427880969671424 82271 590 -14142 -187375
832427880987885568 82660 820 -14005 -187397
832427881006099754 82940 1006 -13919 -187381
832427881024311680 83177 1087 -13858 -187375
832427881042523648 83147 1070 -13880 -187388
832427881060735616 83138 1069 -13818 -187411
832427881078947712 83136 1050 -13859 -187472
832427881097159680 83326 1207 -13725 -187396
832427881115371648 83631 1310 -13667 -187401
832427881133583616 84051 1575 -13465 -187355
832427881151795712 84400 1715 -13359 -187380
832427881170007680 84775 1890 -13228 -187389
832427881188219648 85312 2186 -13015 -187318
832427881206431616 85560 2310 -12904 -187309
832427881224643712 85369 2280 -13023 -187387
832427881242855680 84930 2050 -13159 -187355
832427881261067648 84247 1670 -13399 -187367
832427881279279616 83496 1302 -13708 -187330
832427881297491712 82747 834 -13992 -187343
832427881315703680 81991 420 -14186 -187315
832427881333915648 81447 178 -14429 -187355
832427881352127616 80963 -15 -14635 -187358
832427881370339584 80825 -154 -14713 -187397
832427881388551680 80831 -154 -14707 -187347
832427881406763648 81018 -25 -14621 -187345
832427881424975616 81252 108 -14543 -187370
832427881443187584 81535 248 -14422 -187377
832427881461399680 81858 430 -14247 -187430
832427881479611648 82305 640 -14128 -187326
832427881497823616 82743 850 -13999 -187350
832427881516035584 82970 978 -13883 -187352
832427881534247680 83171 1042 -13841 -187351
832427881552459648 83240 1148 -13806 -187343
832427881570671616 83398 1189 -13746 -187352
832427881588883584 83546 1314 -13667 -187359
832427881607095552 83641 1375 -13604 -187390
832427881625307648 83869 1469 -13546 -187372
832427881643519616 84167 1600 -13463 -187406
832427881661731682 84431 1734 -13331 -187400
832427881679944320 84945 2009 -13116 -187366
832427881698156928 85351 2219 -13021 -187373
832427881716369536 85394 2249 -12967 -187404
832427881734582144 85222 2090 -13018 -187363
832427881752794624 84684 1951 -13251 -187390
832427881771007232 84059 1606 -13479 -187379
832427881789219840 83266 1189 -13792 -187423
832427881807432448 82448 753 -14135 -187346
832427881825645056 81685 378 -14353 -187343
832427881843857664 81151 32 -14584 -187296
832427881862070272 80712 -221 -14739 -187370
832427881880282880 80639 -282 -14760 -187358
832427881898495360 80857 -139 -14664 -187354
832427881916707968 81150 -33 -14567 -187373
832427881934920576 81582 239 -14376 -187325
832427881953133184 81918 454 -14329 -187354
832427881971345792 82351 676 -14104 -187341
832427881989558400 82712 863 -13987 -187353
832427882007771008 82959 980 -13859 -187387
832427882025983616 83088 1057 -13840 -187350
832427882044196096 83153 1134 -13783 -187308
832427882062408704 83135 1064 -13779 -187320
832427882080621312 83321 1133 -13752 -187339
832427882098833920 83378 1234 -13731 -187380
832427882117046528 83698 1416 -13615 -187340
832427882135259136 84174 1613 -13453 -187342
832427882153471744 84481 1742 -13316 -187408
832427882171684352 84899 1943 -13200 -187372
832427882189896832 85341 2228 -13013 -187350
832427882208109440 85490 2293 -12968 -187363
832427882226322048 85275 2171 -13004 -187379
832427882244534656 84797 1945 -13233 -187402
832427882262747264 84179 1648 -13451 -187412
832427882280959872 83458 1264 -13707 -187419
832427882299172480 82798 938 -13921 -187291
832427882317384974 82040 444 -14229 -187368
832427882335597312 81431 130 -14486 -187366
832427882353809664 81029 -30 -14626 -187392
832427882372021888 80883 -135 -14666 -187337
832427882390234240 80834 -62 -14702 -187366
832427882408446592 80987 -84 -14671 -187359
832427882426658944 81296 145 -14567 -187335
832427882444871168 81587 312 -14389 -187354
832427882463083520 82058 470 -14259 -187321
832427882481295872 82437 671 -14096 -187343
832427882499508224 82791 844 -13963 -187321
832427882517720448 83030 1040 -13810 -187300
832427882535932800 83103 1074 -13863 -187341
832427882554145152 83270 1083 -13850 -187350
832427882572357504 83381 1104 -13759 -187389
832427882590569728 83458 1202 -13717 -187340
832427882608782080 83670 1354 -13589 -187359
832427882626994432 83860 1508 -13553 -187345
832427882645206656 84089 1581 -13440 -187386
832427882663419008 84504 1837 -13285 -187346
832427882681631360 84982 2064 -13132 -187394
832427882699843712 85381 2262 -13000 -187336
832427882718055936 85486 2301 -12932 -187322
832427882736268288 85221 2190 -13035 -187363
832427882754480640 84747 1950 -13229 -187309
832427882772692992 84044 1498 -13485 -187357
832427882790905216 83241 1104 -13809 -187302
832427882809117568 82371 650 -14096 -187301
832427882827329920 81565 234 -14394 -187358
832427882845542144 80965 -8 -14643 -187389
832427882863754496 80740 -215 -14758 -187370
832427882881966848 80714 -227 -14685 -187357
832427882900179200 80876 -143 -14678 -187392
832427882918391424 81144 22 -14557 -187367
832427882936603776 81535 247 -14438 -187326
832427882954816128 81989 483 -14352 -187345
832427882973028480 82373 680 -14172 -187376
832427882991240726 82637 793 -14066 -187363
832427883009454592 82877 985 -13950 -187402
832427883027668480 82996 1061 -13874 -187371
832427883045882240 83075 1020 -13834 -187377
832427883064096128 83183 1103 -13799 -187412
832427883082310016 83276 1146 -13795 -187388
832427883100523776 83504 1254 -13667 -187341
832427883118737664 83790 1440 -13582 -187366
832427883136951552 84176 1525 -13443 -187332
832427883155165312 84503 1796 -13315 -187386
832427883173379200 84991 1998 -13186 -187397
832427883191593088 85370 2309 -12975 -187367
832427883209806848 85457 2362 -12996 -187347
832427883228020736 85263 2272 -12998 -187344
832427883246234624 84848 1951 -13187 -187320
832427883264448384 84163 1605 -13407 -187366
832427883282662272 83404 1195 -13690 -187346
832427883300876160 82655 803 -14031 -187403
832427883319089920 81972 443 -14225 -187421
832427883337303808 81469 137 -14476 -187356
832427883355517696 81092 -20 -14611 -187405
832427883373731584 80868 -175 -14737 -187391
832427883391945344 80810 -204 -14720 -187328
832427883410159232 80873 -134 -14645 -187367
832427883428373120 81146 49 -14543 -187387
832427883446586880 81583 286 -14421 -187408
832427883464800768 82080 504 -14287 -187351
832427883483014656 82516 709 -14048 -187354
832427883501228416 82814 917 -14021 -187364
832427883519442304 83052 983 -13867 -187351
832427883537656192 83189 1144 -13787 -187342
832427883555869952 83326 1161 -13769 -187325
832427883574083840 83316 1141 -13804 -187366
832427883592297728 83378 1143 -13761 -187376
832427883610511488 83613 1342 -13650 -187327
832427883628725376 83845 1457 -13594 -187395
832427883646939264 84169 1641 -13452 -187349
832427883665153024 84622 1818 -13292 -187360
832427883683366912 85092 2043 -13152 -187389
832427883701580742 85380 2291 -13029 -187305
832427883719795456 85398 2262 -13045 -187289
832427883738010112 85216 2149 -13074 -187351
832427883756224896 84684 1887 -13230 -187328
832427883774439552 83790 1452 -13534 -187388
832427883792654336 83039 1013 -13782 -187329
832427883810868992 82152 607 -14110 -187311
832427883829083776 81492 142 -14444 -187372
832427883847298432 81055 -65 -14610 -187366
832427883865513088 80846 -184 -14637 -187366
832427883883727872 80753 -232 -14728 -187311
832427883901942528 80938 -134 -14683 -187323
832427883920157312 81287 8 -14570 -187347
832427883938371968 81674 217 -14429 -187378
832427883956586752 82067 507 -14247 -187330
832427883974801408 82392 672 -14137 -187345
832427883993016192 82681 831 -14053 -187350
832427884011230848 82863 902 -13945 -187336
832427884029445504 82974 1026 -13869 -187333
832427884047660288 83121 1085 -13858 -187366
832427884065874944 83182 1155 -13830 -187353
832427884084089728 83341 1153 -13842 -187305
832427884102304384 83530 1286 -13705 -187342
832427884120519168 83910 1488 -13569 -187332
832427884138733824 84228 1670 -13477 -187385
832427884156948480 84634 1852 -13305 -187374
832427884175163264 84895 2002 -13193 -187418
832427884193377920 85295 2193 -13044 -187397
832427884211592704 85333 2259 -12987 -187369
832427884229807360 85187 2176 -13048 -187370
832427884248022144 84809 1971 -13197 -187386
832427884266236800 84200 1624 -13493 -187350
832427884284451584 83401 1134 -13724 -187406
832427884302666240 82590 726 -14048 -187394
832427884320880896 81968 361 -14263 -187347
832427884339095658 81350 94 -14525 -187427
832427884357308672 80992 -97 -14621 -187333
832427884375521664 80736 -163 -14710 -187381
832427884393734528 80705 -245 -14727 -187357
832427884411947520 80906 -50 -14617 -187330
832427884430160384 81308 136 -14494 -187353
832427884448373376 81755 330 -14278 -187354
832427884466586240 82196 540 -14192 -187326
832427884484799232 82560 722 -14050 -187380
832427884503012224 82882 922 -13932 -187391
832427884521225088 83202 1093 -13817 -187337
832427884539438080 83325 1081 -13731 -187368
832427884557650944 83307 1178 -13734 -187355
832427884575863936 83338 1208 -13762 -187355
832427884594076800 83286 1194 -13730 -187356
832427884612289792 83452 1276 -13681 -187370
832427884630502656 83866 1427 -13587 -187359
832427884648715648 84269 1634 -13449 -187408
832427884666928640 84732 1907 -13213 -187350
832427884685141504 85208 2180 -13047 -187376
832427884703354496 85477 2334 -12899 -187353
832427884721567360 85427 2359 -13015 -187386
832427884739780352 85085 2156 -13109 -187384
832427884757993216 84549 1842 -13286 -187284
832427884776206208 83709 1447 -13601 -187288
832427884794419200 82809 981 -13895 -187303
832427884812632064 82080 564 -14240 -187321
832427884830845056 81485 202 -14442 -187338
832427884849057920 81073 -24 -14552 -187343
832427884867270912 80868 -99 -14660 -187306
832427884885483776 80768 -203 -14715 -187248
832427884903696768 81008 -65 -14663 -187293
832427884921909632 81360 105 -14565 -187325
832427884940122624 81655 260 -14433 -187368
832427884958335616 82032 487 -14257 -187390
832427884976548480 82348 651 -14120 -187289
832427884994761472 82566 780 -14042 -187360
832427885012974296 82894 924 -13906 -187356
832427885031188224 83105 1063 -13874 -187366
832427885049402112 83172 1074 -13811 -187337
832427885067616128 83274 1158 -13806 -187358
832427885085830016 83345 1214 -13773 -187369
832427885104043904 83627 1382 -13673 -187352
832427885122257792 83958 1514 -13536 -187310
832427885140471808 84240 1626 -13404 -187339
832427885158685696 84662 1787 -13270 -187320
832427885176899584 84883 2076 -13104 -187323
832427885195113600 85091 2162 -13095 -187351
832427885213327488 85341 2292 -12997 -187343
832427885231541376 85218 2191 -12959 -187333
832427885249755392 84807 2016 -13165 -187312
832427885267969280 84052 1618 -13445 -187398
832427885286183168 83327 1199 -13656 -187363
832427885304397056 82586 828 -13944 -187326
832427885322611072 81987 452 -14193 -187310
832427885340824960 81407 156 -14503 -187367
832427885359038848 80995 -47 -14653 -187328
832427885377252864 80707 -173 -14703 -187343
832427885395466752 80664 -180 -14724 -187323
832427885413680640 80866 -51 -14591 -187367
832427885431894656 81273 125 -14429 -187403
832427885450108544 81712 349 -14326 -187404
832427885468322432 82164 557 -14123 -187335
832427885486536320 82638 769 -14047 -187307
832427885504750336 82941 1012 -13963 -187332
832427885522964224 83198 1112 -13917 -187388
832427885541178112 83291 1167 -13792 -187321
832427885559392128 83197 1097 -13824 -187327
832427885577606016 83167 1120 -13781 -187371
832427885595819904 83331 1119 -13772 -187380
832427885614033920 83610 1274 -13622 -187340
832427885632247808 83960 1480 -13499 -187379
832427885650461696 84342 1670 -13404 -187374
832427885668675584 84770 1893 -13221 -187358
832427885686889560 85278 2141 -13066 -187351
832427885705104128 85557 2358 -12954 -187366
832427885723318656 85421 2293 -12988 -187355
832427885741533184 85042 2095 -13114 -187381
832427885759747584 84354 1758 -13388 -187402
832427885777962112 83540 1262 -13674 -187376
832427885796176640 82836 927 -13899 -187343
832427885814391168 82051 540 -14225 -187411
832427885832605568 81520 201 -14437 -187369
832427885850820096 81063 -11 -14588 -187349
832427885869034624 80799 -171 -14632 -187351
832427885887249152 80702 -229 -14703 -187380
832427885905463552 80941 -161 -14636 -187393
832427885923678080 81314 98 -14489 -187357
832427885941892608 81701 317 -14331 -187328
832427885960107136 82004 431 -14223 -187332
832427885978321664 82385 679 -14117 -187362
832427885996536064 82708 785 -13992 -187372
832427886014750592 82936 952 -13930 -187363
832427886032965120 83169 1078 -13808 -187343
832427886051179648 83262 1137 -13770 -187300
832427886069394048 83250 1131 -13801 -187403
832427886087608576 83551 1200 -13667 -187375
832427886105823104 83720 1414 -13605 -187301
832427886124037632 84008 1537 -13514 -187272
832427886142252160 84208 1634 -13451 -187308
832427886160466560 84584 1817 -13277 -187320
832427886178681088 84815 2008 -13126 -187353
832427886196895616 85275 2187 -12983 -187358
832427886215110144 85380 2270 -13017 -187353
832427886233324544 85181 2109 -13079 -187380
832427886251539072 84769 1950 -13198 -187414
832427886269753600 84060 1574 -13487 -187343
832427886287968128 83341 1162 -13735 -187360
832427886306182528 82600 714 -14003 -187317
832427886324397056 81837 381 -14337 -187301
832427886342611516 81162 49 -14517 -187359
832427886360825472 80765 -132 -14656 -187333
832427886379039488 80505 -264 -14804 -187340
832427886397253504 80676 -219 -14742 -187368
832427886415467392 81057 -46 -14613 -187355
832427886433681408 81490 295 -14377 -187290
832427886451895424 81883 474 -14255 -187329
832427886470109440 82263 679 -14106 -187335
832427886488323456 82731 866 -13981 -187317
832427886506537344 82938 1031 -13789 -187336
832427886524751360 83106 1044 -13782 -187396
832427886542965376 83194 1064 -13725 -187369
832427886561179392 83165 1077 -13729 -187385
832427886579393408 83213 1096 -13761 -187357
832427886597607296 83443 1184 -13740 -187355
832427886615821312 83704 1348 -13610 -187356
832427886634035328 84072 1546 -13477 -187319
832427886652249344 84443 1792 -13348 -187333
832427886670463360 84822 1974 -13178 -187334
832427886688677248 85393 2261 -12983 -187295
832427886706891264 85546 2359 -12881 -187291
832427886725105280 85479 2305 -12924 -187346
832427886743319296 85029 2079 -13130 -187347
832427886761533312 84343 1718 -13353 -187337
832427886779747200 83522 1310 -13696 -187370
832427886797961216 82794 941 -13879 -187321
832427886816175232 82079 535 -14221 -187347
832427886834389248 81544 210 -14409 -187360
832427886852603264 81146 -48 -14508 -187316
832427886870817152 80921 -152 -14632 -187349
832427886889031168 80918 -94 -14615 -187316
832427886907245184 81032 -79 -14656 -187349
832427886925459200 81375 104 -14421 -187284
832427886943673216 81681 286 -14389 -187264
832427886961887104 81959 456 -14220 -187325
832427886980101120 82398 739 -14056 -187310
832427886998315162 82742 885 -13931 -187273
832427887016529792 83020 1064 -13815 -187334
832427887034744448 83197 1080 -13753 -187311
832427887052959104 83282 1132 -13753 -187366
832427887071173760 83410 1207 -13713 -187330
832427887089388416 83518 1274 -13708 -187358
832427887107603072 83700 1338 -13606 -187275
832427887125817856 83887 1520 -13520 -187361
832427887144032512 84204 1645 -13340 -187361
832427887162247168 84497 1811 -13279 -187361
832427887180461824 84946 2062 -13099 -187306
832427887198676480 85451 2325 -12913 -187351
832427887216891136 85440 2323 -12966 -187363
832427887235105792 85230 2221 -13012 -187343
832427887253320448 84781 1929 -13192 -187318
832427887271535104 84053 1599 -13456 -187338
832427887289749760 83259 1187 -13761 -187305
832427887307964544 82482 719 -14057 -187366
832427887326179200 81633 284 -14349 -187328
832427887344393856 81144 52 -14578 -187386
832427887362608512 80801 -173 -14678 -187311
832427887380823168 80745 -134 -14655 -187335
832427887399037824 80871 -144 -14661 -187374
832427887417252480 81262 5 -14512 -187278
832427887435467136 81550 252 -14367 -187347
832427887453681792 81953 473 -14242 -187357
832427887471896448 82390 702 -14096 -187355
832427887490111104 82756 865 -13978 -187315
832427887508325888 82961 997 -13872 -187363
832427887526540544 83119 1003 -13850 -187355
832427887544755200 83133 1077 -13847 -187375
832427887562969856 83243 1156 -13797 -187359
832427887581184512 83340 1212 -13701 -187332
832427887599399168 83527 1235 -13650 -187373
832427887617613824 83742 1397 -13579 -187318
832427887635828480 84111 1612 -13421 -187346
832427887654043136 84579 1825 -13247 -187373
832427887672257792 84998 2069 -13154 -187385
832427887690472576 85376 2279 -12995 -187353
832427887708687220 85593 2385 -12975 -187315
832427887726901888 85334 2230 -13061 -187370
832427887745116544 84835 1980 -13214 -187335
832427887763331200 84238 1664 -13434 -187329
832427887781545856 83498 1228 -13704 -187404
832427887799760512 82767 909 -13920 -187363
832427887817975168 82043 445 -14203 -187340
832427887836189952 81439 179 -14444 -187366
832427887854404608 81135 0 -14545 -187369
832427887872619264 80950 -130 -14610 -187323
832427887890833920 80809 -122 -14693 -187330
832427887909048576 80970 -109 -14648 -187343
832427887927263232 81271 63 -14561 -187354
832427887945477888 81602 231 -14393 -187372
832427887963692544 82066 466 -14169 -187316
832427887981907200 82487 724 -14057 -187309
832427888000121856 82813 878 -13923 -187304
832427888018336640 83027 1098 -13864 -187354
832427888036551296 83211 1124 -13803 -187324
832427888054765952 83320 1173 -13764 -187324
832427888072980608 83388 1204 -13745 -187337
832427888091195264 83504 1301 -13692 -187302
832427888109409920 83619 1328 -13681 -187369
832427888127624576 83867 1478 -13563 -187345
832427888145839232 84163 1566 -13479 -187342
832427888164053888 84565 1827 -13253 -187307
832427888182268544 85084 2096 -13066 -187282
832427888200483328 85450 2275 -12961 -187349
832427888218697984 85471 2348 -12921 -187361
832427888236912640 85205 2207 -13005 -187438
832427888255127296 84729 1943 -13277 -187368
832427888273341952 84008 1526 -13537 -187379
832427888291556608 83198 1076 -13826 -187372
832427888309771264 82353 628 -14123 -187335
832427888327985920 81658 224 -14414 -187376
832427888346200612 81109 -44 -14580 -187341
832427888364415744 80845 -135 -14663 -187326
832427888382630912 80747 -149 -14652 -187321
832427888400846080 80859 -95 -14628 -187307
832427888419061248 81297 131 -14538 -187300
832427888437276416 81680 331 -14371 -187282
832427888455491584 82078 473 -14251 -187323
832427888473706752 82442 702 -14086 -187300
832427888491921920 82715 861 -13969 -187326
832427888510137216 82921 982 -13871 -187312
832427888528352384 83063 1082 -13819 -187366
832427888546567552 83149 1092 -13763 -187351
832427888564782720 83240 1180 -13744 -187363
832427888582997888 83397 1191 -13741 -187386
832427888601213056 83552 1316 -13588 -187320
832427888619428224 83841 1489 -13517 -187328
832427888637643392 84319 1621 -13368 -187349
832427888655858560 84632 1839 -13266 -187350
832427888674073728 84990 2021 -13176 -187394
832427888692288896 85389 2262 -13018 -187363
832427888710504064 85461 2330 -12968 -187371
832427888728719232 85219 2205 -13053 -187384
832427888746934400 84830 1993 -13189 -187338
832427888765149696 84159 1577 -13495 -187397
832427888783364864 83428 1266 -13726 -187357
832427888801580032 82758 849 -13951 -187337
832427888819795200 82016 483 -14239 -187343
832427888838010368 81554 205 -14386 -187332
832427888856225536 81161 46 -14533 -187343
832427888874440704 80855 -108 -14672 -187358
832427888892655872 80884 -145 -14686 -187354
832427888910871040 80989 -24 -14674 -187325
832427888929086208 81283 156 -14524 -187312
832427888947301376 81734 379 -14355 -187281
832427888965516544 82131 539 -14161 -187366
832427888983731712 82456 759 -14046 -187313
832427889001946880 82862 911 -13905 -187318
832427889020162176 83051 995 -13831 -187358
832427889038377344 83342 1211 -13697 -187288
832427889056592514 83409 1229 -13755 -187315
832427889074807424 83382 1177 -13795 -187324
832427889093022336 83453 1245 -13719 -187373
832427889111237376 83610 1324 -13690 -187384
832427889129452288 83875 1501 -13539 -187371
832427889147667200 84308 1672 -13350 -187313
832427889165882240 84728 1974 -13221 -187333
832427889184097152 85184 2159 -13078 -187341
832427889202312064 85479 2335 -12970 -187350
832427889220527104 85476 2292 -12959 -187380
832427889238742016 85286 2184 -13005 -187344
832427889256957056 84650 1844 -13243 -187396
832427889275171968 83817 1430 -13497 -187352
832427889293386880 82975 1023 -13837 -187338
832427889311601920 82112 612 -14185 -187400
832427889329816832 81471 239 -14417 -187380
832427889348031744 81074 -40 -14615 -187324
832427889366246784 80809 -145 -14707 -187354
832427889384461696 80830 -116 -14680 -187374
832427889402676608 80986 -91 -14623 -187356
832427889420891648 81329 60 -14491 -187333
832427889439106560 81700 312 -14356 -187364
832427889457321472 82049 463 -14247 -187359
832427889475536512 82330 665 -14122 -187369
832427889493751424 82607 795 -13998 -187411
832427889511966336 82764 929 -13916 -187315
832427889530181376 82961 946 -13917 -187410
832427889548396288 83151 1074 -13837 -187375
832427889566611200 83220 1127 -13838 -187396
832427889584826240 83410 1220 -13707 -187341
832427889603041152 83512 1219 -13673 -187430
832427889621256192 83918 1506 -13558 -187403
832427889639471104 84283 1673 -13363 -187398
832427889657686016 84563 1838 -13289 -187383
832427889675901056 84993 2058 -13132 -187335
832427889694115968 85288 2222 -13039 -187363
832427889712330880 85322 2254 -12973 -187407
832427889730545922 85219 2190 -13031 -187346
832427889748759168 84751 1924 -13197 -187319
832427889766972416 84056 1521 -13468 -187396
832427889785185792 83377 1230 -13677 -187351
832427889803399040 82674 831 -14000 -187361
832427889821612416 81948 468 -14247 -187387
832427889839825664 81445 248 -14429 -187432
832427889858039040 81004 -31 -14561 -187387
832427889876252288 80768 -183 -14659 -187385
832427889894465664 80734 -171 -14733 -187338
832427889912678912 80911 -100 -14627 -187375
832427889930892288 81314 114 -14531 -187443
832427889949105536 81747 373 -14337 -187369
832427889967318912 82209 574 -14217 -187360
832427889985532160 82623 756 -14060 -187287
832427890003745536 82873 918 -13956 -187342
832427890021958784 83192 1122 -13818 -187338
832427890040172160 83271 1169 -13773 -187337
832427890058385408 83337 1127 -13746 -187402
832427890076598784 83270 1099 -13798 -187408
832427890094812032 83320 1233 -13724 -187374
832427890113025408 83510 1271 -13727 -187407
832427890131238656 83919 1458 -13589 -187406
832427890149452032 84309 1692 -13460 -187354
832427890167665280 84735 1919 -13211 -187330
832427890185878656 85190 2196 -13059 -187417
832427890204091904 85592 2345 -12928 -187390
832427890222305280 85599 2359 -12895 -187334
832427890240518528 85184 2184 -13062 -187380
832427890258731904 84472 1833 -13289 -187328
832427890276945152 83659 1405 -13616 -187353
832427890295158528 82826 918 -13950 -187350
832427890313371776 82049 569 -14229 -187335
832427890331585152 81479 236 -14425 -187363
832427890349798400 81035 -82 -14614 -187410
832427890368011776 80813 -132 -14679 -187358
832427890386225152 80810 -203 -14758 -187400
832427890404436864 81000 -62 -14667 -187384
832427890422648576 81340 124 -14571 -187432
832427890440860288 81663 313 -14413 -187369
832427890459072128 81995 513 -14265 -187392
832427890477283840 82352 697 -14089 -187363
832427890495495552 82656 777 -14036 -187338
832427890513707264 82874 936 -13981 -187374
832427890531919104 83055 1052 -13904 -187370
832427890550130816 83222 1094 -13786 -187336
832427890568342528 83265 1139 -13767 -187335
832427890586554240 83409 1188 -13751 -187366
832427890604765952 83650 1382 -13623 -187363
832427890622977792 84022 1557 -13537 -187359
832427890641189504 84281 1663 -13386 -187357
832427890659401216 84589 1834 -13315 -187381
832427890677612928 84928 2037 -13178 -187325
832427890695824768 85269 2220 -13046 -187357
832427890714036480 85380 2269 -12980 -187321
832427890732248192 85186 2145 -13044 -187343
832427890750459904 84711 1935 -13218 -187364
832427890768671616 84103 1582 -13468 -187397
832427890786883456 83308 1139 -13743 -187358
832427890805095168 82601 754 -13997 -187384
832427890823306880 81875 403 -14295 -187368
832427890841518592 81215 6 -14559 -187441
832427890859730432 80797 -176 -14643 -187410
832427890877942144 80674 -246 -14738 -187379
832427890896153856 80730 -208 -14700 -187350
832427890914365568 81012 -74 -14630 -187393
832427890932577280 81403 131 -14479 -187415
832427890950789120 81824 297 -14350 -187403
832427890969000832 82231 561 -14156 -187370
832427890987212544 82688 811 -13992 -187333
832427891005424256 82981 977 -13844 -187303
832427891023636096 83193 1119 -13753 -187339
832427891041847808 83222 1190 -13836 -187337
832427891060059542 83236 1131 -13853 -187349
832427891078272640 83249 1055 -13869 -187359
832427891096485760 83376 1212 -13797 -187402
832427891114698880 83691 1337 -13610 -187369
832427891132912128 84016 1505 -13512 -187408
832427891151125248 84382 1712 -13377 -187436
832427891169338368 84772 1916 -13194 -187349
832427891187551488 85279 2126 -13062 -187373
832427891205764608 85509 2338 -12974 -187414
832427891223977728 85466 2322 -12942 -187328
832427891242190976 84941 2003 -13179 -187405
832427891260404096 84404 1747 -13366 -187374
832427891278617216 83542 1285 -13732 -187364
832427891296830336 82814 895 -13953 -187347
832427891315043456 82038 502 -14220 -187421
832427891333256576 81487 157 -14441 -187397
832427891351469824 81054 -72 -14627 -187393
832427891369682944 80828 -157 -14711 -187397
832427891387896064 80873 -126 -14656 -187352
832427891406109184 81049 -109 -14642 -187352
832427891424322304 81392 138 -14441 -187306
832427891442535552 81671 287 -14361 -187360
832427891460748672 82011 479 -14265 -187370
832427891478961792 82341 643 -14071 -187357
832427891497174912 82736 857 -13996 -187370
832427891515388032 82940 939 -13921 -187353
832427891533601152 83060 1011 -13831 -187383
832427891551814400 83194 1065 -13828 -187352
832427891570027520 83321 1129 -13743 -187367
832427891588240640 83469 1212 -13714 -187392
832427891606453760 83689 1323 -13663 -187378
832427891624666880 83907 1418 -13568 -187395
832427891642880000 84193 1627 -13426 -187409
832427891661093248 84429 1752 -13303 -187393
832427891679306368 84855 1980 -13159 -187404
832427891697519488 85297 2254 -12983 -187303
832427891715732608 85439 2208 -12966 -187367
832427891733945812 85268 2118 -13060 -187384
832427891752159616 84720 1888 -13279 -187392
832427891770373376 84043 1508 -13497 -187404
832427891788587264 83280 1148 -13751 -187422
832427891806801024 82544 796 -14030 -187376
832427891825014784 81800 373 -14333 -187349
832427891843228544 81215 76 -14523 -187312
832427891861442432 80817 -146 -14694 -187278
832427891879656192 80760 -156 -14695 -187320
832427891897869952 80857 -173 -14698 -187378
832427891916083840 81140 -16 -14583 -187381
832427891934297600 81415 136 -14508 -187403
832427891952511360 81896 422 -14278 -187388
832427891970725120 82230 580 -14161 -187394
832427891988939008 82659 824 -13999 -187376
832427892007152768 82909 964 -13868 -187398
832427892025366528 83139 1063 -13817 -187343
832427892043580416 83116 1067 -13779 -187390
832427892061794176 83168 1050 -13811 -187338
832427892080007936 83243 1089 -13793 -187359
832427892098221696 83522 1235 -13699 -187328
832427892116435584 83729 1374 -13603 -187352
832427892134649344 84130 1531 -13496 -187357
832427892152863104 84432 1736 -13369 -187349
832427892171076992 84880 1980 -13209 -187394
832427892189290752 85349 2275 -12983 -187352
832427892207504512 85529 2398 -12942 -187363
832427892225718272 85313 2274 -13008 -187323
832427892243932160 84946 2076 -13138 -187357
832427892262145920 84247 1679 -13410 -187358
832427892280359680 83563 1296 -13646 -187412
832427892298573440 82791 885 -13931 -187381
832427892316787328 82105 537 -14152 -187361
832427892335001088 81504 227 -14417 -187379
832427892353214848 81072 -30 -14594 -187401
832427892371428680 80932 -94 -14637 -187409
832427892389642624 80891 -117 -14650 -187370
832427892407856512 81101 -55 -14541 -187368
832427892426070272 81319 123 -14484 -187405
832427892444284160 81602 278 -14347 -187343
832427892462498048 82023 479 -14261 -187356
832427892480711808 82467 672 -14155 -187346
832427892498925696 82816 856 -14014 -187361
832427892517139584 83027 984 -13900 -187366
832427892535353344 83154 1084 -13853 -187385
832427892553567232 83247 1155 -13812 -187368
832427892571781120 83357 1229 -13689 -187356
832427892589994880 83520 1302 -13689 -187363
832427892608208768 83672 1331 -13611 -187375
832427892626422528 83919 1480 -13563 -187351
832427892644636416 84120 1611 -13503 -187372
832427892662850304 84496 1805 -13294 -187384
832427892681064064 85050 2061 -13149 -187385
832427892699277952 85385 2243 -13008 -187374
832427892717491840 85528 2371 -12923 -187342
832427892735705600 85227 2160 -13058 -187337
832427892753919488 84652 1855 -13328 -187363
832427892772133376 83991 1492 -13527 -187398
832427892790347136 83209 1102 -13780 -187367
832427892808561024 82397 705 -14069 -187370
832427892826774912 81675 311 -14355 -187304
832427892844988672 81091 -68 -14594 -187363
832427892863202560 80792 -170 -14665 -187324
832427892881416448 80633 -220 -14699 -187371
832427892899630208 80813 -141 -14700 -187387
832427892917844096 81162 23 -14543 -187366
832427892936057984 81533 196 -14417 -187346
832427892954271744 81943 373 -14303 -187357
832427892972485632 82366 605 -14164 -187395
832427892990699520 82707 810 -14040 -187429
832427893008913280 82949 928 -13937 -187391
832427893027127168 83032 1003 -13872 -187392
832427893045340890 83084 1032 -13886 -187370
832427893063555584 83198 1110 -13829 -187349
832427893081770240 83317 1124 -13779 -187345
832427893099984896 83538 1243 -13747 -187367
832427893118199552 83849 1480 -13599 -187309
832427893136414208 84181 1597 -13435 -187355
832427893154628864 84534 1837 -13336 -187404
832427893172843648 84981 2071 -13149 -187338
832427893191058304 85406 2309 -13015 -187361
832427893209272960 85453 2384 -12985 -187376
832427893227487616 85248 2231 -13080 -187420
832427893245702272 84742 1936 -13238 -187342
832427893263916928 84175 1594 -13426 -187386
832427893282131584 83511 1233 -13702 -187401
832427893300346240 82762 820 -13962 -187353
832427893318560896 82042 440 -14220 -187346
832427893336775552 81454 168 -14485 -187401
832427893354990336 81107 -43 -14546 -187395
832427893373204992 80894 -127 -14629 -187352
832427893391419648 80820 -159 -14679 -187354
832427893409634304 80985 -114 -14616 -187392
832427893427848960 81173 2 -14596 -187347
832427893446063616 81559 217 -14397 -187395
832427893464278272 81995 448 -14280 -187415
832427893482492928 82470 682 -14149 -187370
832427893500707584 82715 887 -13944 -187388
832427893518922240 83052 1072 -13868 -187415
832427893537137024 83187 1086 -13846 -187394
832427893555351680 83330 1184 -13790 -187390
832427893573566336 83371 1223 -13769 -187363
832427893591780992 83427 1253 -13745 -187384
832427893609995648 83559 1356 -13659 -187368
832427893628210304 83757 1430 -13596 -187378
832427893646424960 84144 1565 -13470 -187405
832427893664639616 84564 1772 -13352 -187394
832427893682854272 85058 2030 -13122 -187361
832427893701068928 85378 2263 -12972 -187368
832427893719283618 85501 2273 -13026 -187396
832427893737497984 85285 2155 -13080 -187412
832427893755712384 84702 1897 -13258 -187402
832427893773926912 83984 1465 -13510 -187402
832427893792141312 83048 1060 -13870 -187397
832427893810355840 82247 666 -14110 -187362
832427893828570240 81504 189 -14486 -187345
832427893846784768 81023 -52 -14670 -187332
832427893864999168 80699 -171 -14786 -187415
832427893883213696 80681 -214 -14686 -187387
832427893901428096 80845 -147 -14672 -187337
832427893919642496 81153 10 -14580 -187378
832427893937857024 81603 263 -14342 -187383
832427893956071424 81995 496 -14209 -187442
832427893974285952 82355 668 -14092 -187366
832427893992500352 82644 722 -14066 -187356
832427894010714880 82889 876 -13950 -187328
832427894028929280 82928 985 -13869 -187383
832427894047143680 83052 1015 -13803 -187386
832427894065358208 83173 1128 -13801 -187364
832427894083572608 83288 1145 -13851 -187405
832427894101787136 83550 1223 -13729 -187410
832427894120001536 83869 1407 -13559 -187333
832427894138216064 84196 1628 -13461 -187371
832427894156430464 84554 1842 -13263 -187379
832427894174644992 85002 2038 -13116 -187361
832427894192859392 85347 2197 -13058 -187412
832427894211073792 85395 2334 -13022 -187355
832427894229288320 85126 2133 -13096 -187363
832427894247502720 84735 1919 -13241 -187368
832427894265717248 84158 1538 -13438 -187413
832427894283931648 83376 1223 -13680 -187385
832427894302146176 82639 761 -14000 -187401
832427894320360576 81927 375 -14329 -187429
832427894338575104 81405 125 -14500 -187383
832427894356789504 81055 -32 -14603 -187373
832427894375004048 80795 -131 -14713 -187353
832427894393218944 80726 -233 -14714 -187359
832427894411433856 80908 -117 -14659 -187343
832427894429648768 81221 80 -14553 -187393
832427894447863552 81696 317 -14362 -187413
832427894466078464 82146 559 -14196 -187356
832427894484293376 82623 801 -14043 -187355
832427894502508288 82917 945 -13911 -187347
832427894520723200 83029 955 -13918 -187403
832427894538937984 83258 1048 -13791 -187342
832427894557152896 83295 1111 -13745 -187381
832427894575367808 83397 1219 -13685 -187349
832427894593582720 83428 1219 -13736 -187321
832427894611797632 83518 1287 -13684 -187362
832427894630012416 83858 1469 -13603 -187355
832427894648227328 84198 1687 -13479 -187366
832427894666442240 84638 1881 -13278 -187392
832427894684657152 85179 2197 -13056 -187360
832427894702872064 85500 2361 -12972 -187325
832427894721086848 85505 2329 -13000 -187374
832427894739301760 85184 2171 -13082 -187360
832427894757516672 84554 1845 -13335 -187360
832427894775731584 83749 1390 -13585 -187349
832427894793946496 82924 942 -13903 -187356
832427894812161280 82006 566 -14205 -187363
832427894830376192 81496 134 -14413 -187337
832427894848591104 81010 -92 -14584 -187351
832427894866806016 80825 -120 -14663 -187366
832427894885020928 80748 -209 -14696 -187343
832427894903235712 80866 -173 -14657 -187373
832427894921450624 81321 83 -14432 -187364
832427894939665536 81723 268 -14360 -187353
832427894957880448 82072 464 -14238 -187299
832427894976095360 82367 653 -14127 -187378
832427894994310144 82597 773 -14009 -187384
832427895012525070 82859 906 -13897 -187354
832427895030740480 83034 1014 -13866 -187375
832427895048955904 83193 1098 -13796 -187380
832427895067171200 83280 1100 -13787 -187376
832427895085386624 83404 1148 -13723 -187403
832427895103601920 83579 1281 -13654 -187363
832427895121817344 83918 1471 -13576 -187409
832427895140032640 84269 1686 -13363 -187303
832427895158248064 84597 1797 -13301 -187390
832427895176463488 84999 2039 -13155 -187435
832427895194678784 85341 2241 -13033 -187408
832427895212894208 85460 2294 -13006 -187347
832427895231109504 85286 2194 -13041 -187294
832427895249324928 84769 1949 -13263 -187315
832427895267540224 84135 1611 -13424 -187346
832427895285755648 83403 1186 -13725 -187385
832427895303971072 82596 832 -14026 -187385
832427895322186368 81956 486 -14263 -187356
832427895340401792 81357 162 -14512 -187374
832427895358617088 80978 -44 -14613 -187388
832427895376832512 80759 -117 -14710 -187342
832427895395047808 80650 -153 -14703 -187363
832427895413263232 80916 -47 -14610 -187407
832427895431478656 81308 87 -14541 -187400
832427895449693952 81682 295 -14393 -187380
832427895467909376 82193 572 -14189 -187404
832427895486124672 82572 741 -14039 -187368
832427895504340096 83018 991 -13810 -187373
832427895522555392 83149 1131 -13787 -187373
832427895540770816 83275 1161 -13759 -187345
832427895558986240 83273 1194 -13736 -187273
832427895577201536 83309 1147 -13741 -187379
832427895595416960 83345 1189 -13761 -187374
832427895613632256 83549 1282 -13724 -187390
832427895631847680 83909 1558 -13486 -187327
832427895650062976 84281 1751 -13372 -187367
832427895668278400 84702 1936 -13203 -187359
832427895686493734 85214 2199 -13018 -187393
832427895704707072 85546 2331 -12933 -187371
832427895722920448 85527 2323 -12937 -187362
832427895741133824 85112 2168 -13122 -187353
832427895759347328 84455 1751 -13382 -187369
832427895777560704 83599 1362 -13656 -187345
832427895795774080 82773 889 -13927 -187347
832427895813987456 82025 420 -14201 -187435
832427895832200960 81514 183 -14390 -187375
832427895850414336 81091 -23 -14536 -187317
832427895868627712 80882 -144 -14656 -187323
832427895886841088 80877 -135 -14651 -187339
832427895905054464 81051 -58 -14613 -187398
832427895923267968 81403 112 -14454 -187350
832427895941481344 81721 277 -14370 -187315
832427895959694720 82021 460 -14234 -187339
832427895977908096 82334 670 -14058 -187391
832427895996121472 82643 815 -14003 -187394
832427896014334976 82926 987 -13841 -187332
832427896032548352 83158 1003 -13804 -187366
832427896050761728 83213 1084 -13785 -187370
832427896068975104 83340 1143 -13763 -187371
832427896087188608 83418 1200 -13699 -187406
832427896105401984 83627 1316 -13598 -187388
832427896123615360 83877 1446 -13511 -187454
832427896141828736 84212 1558 -13438 -187403
832427896160042112 84525 1744 -13348 -187373
832427896178255616 84839 1990 -13144 -187411
832427896196468992 85257 2243 -13022 -187384
832427896214682368 85384 2250 -12956 -187363
832427896232895744 85200 2169 -13011 -187345
832427896251109248 84733 1886 -13190 -187379
832427896269322624 84041 1520 -13472 -187403
832427896287536000 83414 1185 -13785 -187394
832427896305749376 82672 826 -14033 -187359
832427896323962872 81912 436 -14321 -187400
832427896342176512 81330 121 -14481 -187396
832427896360390144 80900 -180 -14700 -187368
832427896378603648 80661 -243 -14801 -187391
832427896396817280 80722 -256 -14758 -187401
832427896415030784 81031 -17 -14586 -187340
832427896433244416 81459 187 -14428 -187347
832427896451457920 81870 407 -14254 -187389
832427896469671552 82261 600 -14169 -187378
832427896487885056 82721 878 -13975 -187357
832427896506098688 82971 1006 -13818 -187354
832427896524312192 83190 1118 -13775 -187325
832427896542525824 83226 1119 -13851 -187358
832427896560739328 83269 1143 -13852 -187352
832427896578952960 83176 1098 -13794 -187385
832427896597166592 83344 1218 -13741 -187405
832427896615380096 83641 1344 -13661 -187404
832427896633593728 84012 1559 -13433 -187409
832427896651807232 84420 1785 -13330 -187369
832427896670020864 84789 1898 -13212 -187373
832427896688234368 85300 2197 -12988 -187369
832427896706448000 85549 2348 -12910 -187409
832427896724661504 85403 2278 -12905 -187373
832427896742875136 84948 2019 -13150 -187380
832427896761088640 84259 1684 -13385 -187361
832427896779302272 83512 1268 -13715 -187379
832427896797515776 82832 932 -13978 -187344
832427896815729408 82078 482 -14264 -187422
832427896833943040 81544 182 -14465 -187368
832427896852156544 81069 -78 -14628 -187408
832427896870370176 80893 -167 -14695 -187368
832427896888583680 80871 -137 -14703 -187345
832427896906797312 81059 -65 -14618 -187360
832427896925010816 81344 143 -14506 -187412
832427896943224448 81665 320 -14345 -187418
832427896961437952 82004 460 -14226 -187338
832427896979651584 82402 688 -14120 -187371
832427896997865088 82768 793 -13977 -187383
832427897016078720 83002 935 -13896 -187383
832427897034292212 83098 1050 -13759 -187334
832427897052506624 83292 1127 -13760 -187359
832427897070721024 83327 1157 -13774 -187387
832427897088935296 83463 1183 -13726 -187369
832427897107149696 83730 1416 -13593 -187308
832427897125363968 83956 1470 -13561 -187390
832427897143578368 84184 1638 -13423 -187381
832427897161792640 84472 1836 -13261 -187352
832427897180007040 84960 2056 -13149 -187359
832427897198221312 85354 2184 -13013 -187426
832427897216435712 85425 2305 -12930 -187315
832427897234649984 85127 2179 -13043 -187362
832427897252864384 84616 1853 -13205 -187352
832427897271078656 84043 1512 -13463 -187347
832427897289293056 83301 1158 -13774 -187351
832427897307507328 82510 806 -14007 -187317
832427897325721728 81772 415 -14343 -187378
832427897343936000 81186 26 -14606 -187342
832427897362150400 80779 -185 -14659 -187362
832427897380364672 80664 -264 -14733 -187352
832427897398579072 80713 -202 -14720 -187395
832427897416793344 81153 -13 -14668 -187344
832427897435007744 81504 204 -14418 -187352
832427897453222016 81957 454 -14210 -187346
832427897471436416 82385 705 -14084 -187381
832427897489650688 82684 785 -13962 -187409
832427897507865088 82965 982 -13852 -187371
832427897526079360 83035 1000 -13828 -187316
832427897544293760 83130 1053 -13816 -187332
832427897562508160 83213 1019 -13781 -187328
832427897580722432 83292 1096 -13746 -187349
832427897598936832 83458 1222 -13702 -187380
832427897617151104 83752 1414 -13560 -187397
832427897635365504 84058 1526 -13518 -187405
832427897653579776 84528 1815 -13308 -187406
832427897671794176 84897 2054 -13149 -187373
832427897690008448 85336 2206 -12998 -187369
832427897708222732 85506 2277 -12981 -187419
832427897726436992 85274 2194 -13009 -187364
832427897744651264 84806 1898 -13198 -187373
832427897762865664 84223 1610 -13434 -187369
832427897781079936 83477 1254 -13680 -187414
832427897799294336 82766 883 -13912 -187306
832427897817508608 81983 392 -14278 -187386
832427897835723008 81425 191 -14467 -187378
832427897853937280 81072 -43 -14525 -187374
832427897872151680 80933 -117 -14657 -187357
832427897890365952 80815 -141 -14671 -187378
832427897908580224 80946 -69 -14610 -187340
832427897926794624 81320 130 -14444 -187352
832427897945008896 81607 282 -14331 -187315
832427897963223296 81971 465 -14230 -187395
832427897981437568 82422 753 -14031 -187351
832427897999651968 82824 964 -13929 -187367
832427898017866240 83033 1036 -13810 -187366
832427898036080640 83182 1104 -13773 -187338
832427898054294912 83279 1064 -13753 -187369
832427898072509312 83361 1136 -13722 -187417
832427898090723584 83464 1205 -13751 -187412
832427898108937856 83575 1273 -13641 -187354
832427898127152256 83860 1511 -13543 -187360
832427898145366528 84152 1609 -13500 -187435
832427898163580928 84590 1797 -13319 -187375
832427898181795200 85022 2104 -13139 -187335
832427898200009600 85431 2357 -12957 -187322
832427898218223872 85438 2368 -12972 -187340
832427898236438272 85229 2198 -13065 -187352
832427898254652544 84746 1967 -13257 -187344
832427898272866816 83994 1563 -13513 -187341
832427898291081216 83175 1124 -13793 -187370
832427898309295488 82318 632 -14081 -187336
832427898327509888 81580 296 -14386 -187338
832427898345724160 80993 -5 -14600 -187356
832427898363938586 80710 -198 -14679 -187422
832427898382153856 80792 -234 -14690 -187347
832427898400369152 80877 -132 -14616 -187372
832427898418584576 81259 122 -14472 -187336
832427898436799872 81651 264 -14346 -187317
832427898455015296 82075 474 -14251 -187341
832427898473230592 82422 676 -14123 -187384
832427898491445888 82759 824 -13954 -187337
832427898509661312 82955 973 -13896 -187409
832427898527876608 83071 1028 -13894 -187349
832427898546092032 83136 1021 -13835 -187401
832427898564307328 83218 1156 -13782 -187361
832427898582522624 83313 1109 -13767 -187333
832427898600738048 83512 1228 -13709 -187350
832427898618953344 83830 1423 -13540 -187293
832427898637168768 84163 1643 -13436 -187330
832427898655384064 84496 1821 -13300 -187340
832427898673599360 84925 2052 -13126 -187364
832427898691814784 85353 2277 -12954 -187376
832427898710030080 85463 2279 -13014 -187413
832427898728245376 85275 2195 -13062 -187315
832427898746460800 84788 1935 -13218 -187369
832427898764676096 84195 1626 -13400 -187371
832427898782891520 83452 1303 -13653 -187347
832427898801106816 82741 894 -13895 -187357
832427898819322112 82004 458 -14245 -187335
832427898837537536 81407 166 -14481 -187333
832427898855752832 81025 1 -14619 -187371
832427898873968256 80895 -95 -14619 -187324
832427898892183552 80797 -90 -14676 -187392
832427898910398848 80929 -69 -14663 -187384
832427898928614272 81260 79 -14481 -187322
832427898946829568 81680 244 -14412 -187369
832427898965044992 82125 455 -14229 -187351
832427898983260288 82458 728 -14025 -187388
832427899001475584 82880 907 -13902 -187328
832427899019691060 83103 1049 -13809 -187316
832427899037907200 83276 1132 -13790 -187394
832427899056123392 83352 1179 -13721 -187323
832427899074339584 83362 1153 -13675 -187394
832427899092555776 83421 1266 -13688 -187444
832427899110771968 83631 1292 -13662 -187393
832427899128988160 83854 1480 -13513 -187385
832427899147204352 84155 1601 -13445 -187424
832427899165420544 84620 1848 -13248 -187398
832427899183636736 85057 2087 -13152 -187421
832427899201852928 85467 2317 -12945 -187393
832427899220069120 85415 2355 -12977 -187364
832427899238285312 85186 2113 -13051 -187388
832427899256501504 84576 1836 -13286 -187402
832427899274717696 83879 1413 -13517 -187368
832427899292933888 83014 1011 -13855 -187396
832427899311150080 82174 568 -14165 -187421
832427899329366272 81518 204 -14501 -187414
832427899347582464 81012 -119 -14661 -187407
832427899365798656 80746 -168 -14754 -187451
832427899384014848 80776 -183 -14711 -187345
832427899402231040 80901 -135 -14673 -187392
832427899420447232 81309 111 -14566 -187371
832427899438663424 81693 302 -14374 -187385
832427899456879616 82039 524 -14211 -187393
832427899475095808 82425 708 -14081 -187405
832427899493312000 82748 841 -14004 -187412
832427899511528192 82835 911 -13918 -187457
832427899529744384 83055 973 -13910 -187410
832427899547960576 83193 1089 -13855 -187324
832427899566176768 83222 1140 -13862 -187455
832427899584392960 83397 1270 -13746 -187368
832427899602609280 83607 1343 -13663 -187369
832427899620825472 83864 1465 -13557 -187375
832427899639041664 84242 1664 -13435 -187361
832427899657257856 84550 1818 -13309 -187336
832427899675474048 84932 1993 -13152 -187360
832427899693690240 85283 2241 -13009 -187355
832427899711906432 85411 2274 -13000 -187333
832427899730122630 85214 2205 -13044 -187398
832427899748339072 84821 1998 -13154 -187338
832427899766555520 84139 1630 -13402 -187313
832427899784771968 83418 1241 -13701 -187349
832427899802988416 82604 812 -13963 -187398
832427899821204864 81971 482 -14267 -187423
832427899839421312 81451 151 -14518 -187362
832427899857637760 81000 -47 -14631 -187362
832427899875854208 80699 -213 -14655 -187409
832427899894070656 80667 -286 -14757 -187443
832427899912287232 80871 -135 -14661 -187394
832427899930503680 81299 108 -14448 -187351
832427899948720128 81709 251 -14340 -187391
832427899966936576 82158 532 -14195 -187333
832427899985153024 82591 788 -14028 -187349
832427900003369472 82898 946 -13922 -187304
832427900021585920 83121 1107 -13828 -187329
832427900039802368 83270 1177 -13811 -187352
832427900058018816 83279 1147 -13789 -187360
832427900076235264 83287 1141 -13762 -187340
832427900094451712 83395 1223 -13756 -187354
832427900112668160 83659 1309 -13729 -187371
832427900130884608 83956 1541 -13546 -187337
832427900149101056 84262 1695 -13388 -187340
832427900167317504 84706 1948 -13178 -187370
832427900185533952 85206 2157 -13091 -187360
832427900203750528 85461 2311 -13015 -187363
832427900221966976 85527 2326 -12943 -187324
832427900240183424 85186 2152 -13098 -187369
832427900258399872 84545 1792 -13336 -187358
832427900276616320 83712 1383 -13645 -187371
832427900294832768 82839 967 -13984 -187345
832427900313049216 82145 540 -14241 -187360
832427900331265664 81558 234 -14431 -187413
832427900349482112 81083 -21 -14612 -187344
832427900367698582 80894 -163 -14637 -187362
832427900385913216 80799 -184 -14695 -187381
832427900404127872 81030 -86 -14552 -187333
832427900422342528 81414 113 -14464 -187335
832427900440557184 81739 345 -14313 -187373
832427900458771840 82119 559 -14187 -187322
832427900476986496 82327 648 -14074 -187312
832427900495201280 82545 786 -14021 -187354
832427900513415936 82859 972 -13913 -187385
832427900531630592 83021 1034 -13855 -187369
832427900549845248 83202 1131 -13779 -187429
832427900568059904 83355 1127 -13766 -187380
832427900586274560 83472 1225 -13730 -187375
832427900604489216 83658 1343 -13641 -187396
832427900622703872 83972 1479 -13551 -187396
832427900640918528 84172 1580 -13483 -187388
832427900659133184 84582 1725 -13324 -187407
832427900677347968 84944 1915 -13156 -187354
832427900695562624 85255 2143 -12981 -187374
832427900713777280 85417 2279 -12999 -187427
832427900731991936 85273 2215 -13070 -187408
832427900750206592 84791 1936 -13186 -187375
832427900768421248 84124 1557 -13455 -187391
832427900786635904 83405 1171 -13710 -187403
832427900804850560 82690 763 -13987 -187385
832427900823065216 81955 450 -14261 -187363
832427900841279872 81326 73 -14489 -187370
832427900859494656 80929 -88 -14620 -187370
832427900877709312 80702 -238 -14705 -187372
832427900895923968 80730 -247 -14699 -187345
832427900914138624 80961 -96 -14662 -187379
832427900932353280 81449 207 -14485 -187343
832427900950567936 81816 347 -14279 -187371
832427900968782592 82215 547 -14167 -187408
832427900986997248 82604 746 -14075 -187377
832427901005211904 82935 964 -13938 -187397
832427901023426560 83179 1147 -13823 -187368
832427901041641216 83221 1113 -13819 -187332
832427901059856000 83284 1137 -13777 -187336
832427901078070646 83231 1061 -13864 -187400
832427901096286208 83414 1211 -13726 -187320
832427901114501760 83678 1340 -13624 -187339
832427901132717312 84011 1529 -13439 -187339
832427901150932864 84372 1777 -13324 -187313
832427901169148416 84766 1912 -13194 -187321
832427901187363968 85245 2141 -13005 -187305
832427901205579392 85633 2365 -12876 -187352
832427901223794944 85469 2320 -12968 -187391
832427901242010496 85091 2115 -13117 -187336
832427901260226048 84473 1749 -13331 -187342
832427901278441600 83531 1276 -13639 -187347
832427901296657152 82751 914 -13982 -187345
832427901314872704 81997 498 -14219 -187381
832427901333088256 81451 241 -14395 -187351
832427901351303808 81072 -61 -14600 -187353
832427901369519360 80866 -137 -14697 -187387
832427901387734912 80846 -192 -14720 -187341
832427901405950336 81046 -16 -14611 -187372
832427901424165888 81346 174 -14426 -187386
832427901442381440 81702 290 -14408 -187379
832427901460596992 82061 428 -14211 -187367
832427901478812544 82311 564 -14160 -187379
832427901497028096 82662 794 -14029 -187422
832427901515243648 82936 919 -13946 -187362
832427901533459200 83124 1100 -13806 -187341
832427901551674752 83262 1148 -13859 -187353
832427901569890304 83295 1149 -13747 -187358
832427901588105856 83471 1188 -13753 -187344
832427901606321280 83747 1386 -13626 -187320
832427901624536832 84004 1526 -13545 -187334
832427901642752384 84206 1676 -13427 -187338
832427901660967936 84556 1848 -13268 -187350
832427901679183488 84870 1968 -13193 -187394
832427901697399040 85346 2232 -13001 -187366
832427901715614556 85467 2260 -12985 -187415
832427901733830272 85241 2156 -13035 -187346
832427901752045952 84721 1864 -13232 -187428
832427901770261632 84043 1494 -13487 -187371
832427901788477312 83335 1179 -13782 -187360
832427901806692992 82607 751 -14033 -187385
832427901824908672 81818 350 -14290 -187336
832427901843124352 81224 68 -14517 -187363
832427901861340032 80779 -165 -14665 -187418
832427901879555712 80699 -276 -14678 -187367
832427901897771392 80829 -169 -14680 -187325
832427901915987072 81109 -23 -14599 -187370
832427901934202752 81538 215 -14468 -187350
832427901952418560 81951 439 -14313 -187363
832427901970634240 82357 693 -14105 -187320
832427901988849920 82728 863 -13997 -187361
832427902007065600 83024 966 -13867 -187381
832427902025281280 83186 1031 -13827 -187349
832427902043496960 83245 1082 -13804 -187326
832427902061712640 83228 1046 -13808 -187363
832427902079928320 83326 1178 -13764 -187359
832427902098144000 83507 1296 -13729 -187374
832427902116359680 83728 1429 -13604 -187395
832427902134575360 84130 1532 -13424 -187419
832427902152791040 84463 1844 -13273 -187330
832427902171006720 84967 2017 -13156 -187381
832427902189222400 85383 2221 -13056 -187420
832427902207438080 85575 2383 -12954 -187388
832427902225653760 85422 2296 -12984 -187369
832427902243869440 84956 2079 -13161 -187358
832427902262085120 84239 1707 -13446 -187384
832427902280300800 83471 1287 -13775 -187374
832427902298516480 82785 853 -14033 -187369
832427902316732160 82063 491 -14255 -187380
832427902334947840 81500 215 -14432 -187368
832427902353163520 81047 -66 -14645 -187354
832427902371379238 80894 -113 -14634 -187371
832427902389594496 80885 -185 -14671 -187393
832427902407809792 81034 -61 -14621 -187355
832427902426025216 81350 134 -14482 -187439
832427902444240512 81669 244 -14421 -187397
832427902462455936 81929 427 -14295 -187439
832427902480671232 82438 616 -14121 -187349
832427902498886528 82709 753 -14015 -187371
832427902517101952 82967 998 -13947 -187353
832427902535317248 83172 1024 -13850 -187394
832427902553532672 83274 1083 -13802 -187343
832427902571747968 83377 1172 -13727 -187359
832427902589963264 83504 1235 -13716 -187344
832427902608178688 83642 1331 -13671 -187363
832427902626393984 83932 1495 -13533 -187299
832427902644609408 84144 1606 -13473 -187360
832427902662824704 84535 1765 -13281 -187347
832427902681040000 85013 1993 -13156 -187413
832427902699255424 85377 2239 -12989 -187387
832427902717470720 85419 2300 -12903 -187376
832427902735686016 85228 2107 -13065 -187371
832427902753901440 84653 1868 -13292 -187371
832427902772116736 84011 1553 -13526 -187377
832427902790332160 83273 1111 -13857 -187410
832427902808547456 82399 675 -14151 -187408
832427902826762752 81686 308 -14355 -187396
832427902844978176 81046 -26 -14589 -187363
832427902863193472 80787 -187 -14693 -187358
832427902881408896 80729 -178 -14737 -187390
832427902899624192 80844 -188 -14677 -187432
832427902917839488 81248 12 -14551 -187417
832427902936054912 81553 219 -14377 -187385
832427902954270208 81998 416 -14237 -187325
832427902972485632 82316 632 -14140 -187406
832427902990700928 82724 819 -13967 -187394
832427903008916224 82935 1009 -13896 -187346
832427903027131712 82977 998 -13863 -187369
832427903045346304 83038 1035 -13872 -187363
832427903063560960 83193 1097 -13828 -187366
832427903081775616 83303 1186 -13759 -187342
832427903099990272 83501 1264 -13702 -187380
832427903118204928 83748 1378 -13609 -187413
832427903136419584 84119 1581 -13466 -187415
832427903154634368 84510 1763 -13429 -187402
832427903172849024 84938 1976 -13227 -187394
832427903191063680 85359 2158 -13002 -187403
832427903209278336 85494 2314 -13007 -187381
832427903227492992 85253 2156 -13045 -187384
832427903245707648 84749 1891 -13301 -187396
832427903263922304 84144 1640 -13470 -187398
832427903282136960 83453 1228 -13770 -187380
832427903300351616 82692 833 -14024 -187413
832427903318566272 81996 428 -14274 -187419
832427903336781056 81440 204 -14489 -187413
832427903354995712 81077 0 -14643 -187328
832427903373210368 80840 -152 -14712 -187403
832427903391425024 80770 -167 -14683 -187400
832427903409639680 81030 -68 -14622 -187438
832427903427854336 81287 89 -14553 -187391
832427903446068992 81659 175 -14356 -187381
832427903464283648 82055 453 -14246 -187367
832427903482498304 82463 660 -14098 -187445
832427903500712960 82819 851 -13956 -187407
832427903518927616 83086 1043 -13850 -187347
832427903537142400 83213 1067 -13802 -187400
832427903555357056 83300 1154 -13785 -187394
832427903573571712 83414 1171 -13706 -187357
832427903591786368 83510 1200 -13711 -187396
832427903610001024 83585 1268 -13673 -187390
832427903628215680 83858 1430 -13523 -187341
832427903646430336 84179 1546 -13512 -187427
832427903664644992 84589 1819 -13362 -187374
832427903682859648 85077 2055 -13127 -187377
832427903701074304 85463 2312 -12995 -187370
832427903719289088 85483 2338 -12937 -187389
832427903737503770 85197 2166 -13033 -187411
832427903755719936 84698 1899 -13230 -187404
832427903773936128 83935 1424 -13521 -187410
832427903792152192 83129 1059 -13821 -187337
832427903810368384 82253 555 -14158 -187418
832427903828584576 81476 167 -14432 -187370
832427903846800640 81036 -62 -14581 -187383
832427903865016832 80766 -200 -14683 -187375
832427903883233024 80769 -260 -14727 -187413
832427903901449088 80876 -177 -14699 -187464
832427903919665280 81207 0 -14504 -187360
832427903937881472 81720 274 -14401 -187361
832427903956097536 82054 470 -14271 -187363
832427903974313728 82442 761 -14114 -187316
832427903992529920 82704 819 -14014 -187340
832427904010745984 82817 916 -13939 -187316
832427904028962176 82914 993 -13904 -187359
832427904047178368 83136 1062 -13846 -187357
832427904065394560 83241 1101 -13766 -187370
832427904083610624 83386 1233 -13740 -187343
832427904101826816 83578 1263 -13701 -187351
832427904120043008 83874 1422 -13560 -187324
832427904138259072 84203 1658 -13450 -187390
832427904156475264 84593 1836 -13317 -187442
832427904174691456 84924 1987 -13172 -187427
832427904192907520 85372 2274 -12989 -187386
832427904211123712 85428 2225 -12989 -187427
832427904229339904 85267 2100 -13060 -187393
832427904247555968 84783 1902 -13260 -187413
832427904265772160 84216 1581 -13446 -187375
832427904283988352 83462 1141 -13756 -187363
832427904302204416 82771 819 -13958 -187328
832427904320420608 82039 477 -14211 -187357
832427904338636800 81497 225 -14430 -187381
832427904356852864 81085 -58 -14621 -187423
832427904375069044 80917 -151 -14678 -187379
832427904393284480 80862 -125 -14644 -187396
832427904411499904 80951 -47 -14609 -187414
832427904429715328 81273 105 -14528 -187390
832427904447930752 81766 337 -14313 -187347
832427904466146176 82106 542 -14182 -187377
832427904484361600 82523 770 -14066 -187398
832427904502576896 82868 923 -13932 -187368
832427904520792320 83120 1062 -13878 -187370
832427904539007744 83304 1066 -13774 -187353
832427904557223168 83340 1190 -13804 -187378
832427904575438592 83374 1144 -13791 -187398
832427904593654016 83409 1220 -13803 -187381
832427904611869440 83579 1360 -13656 -187368
832427904630084864 83919 1448 -13562 -187370
832427904648300288 84293 1656 -13359 -187376
832427904666515712 84718 1919 -13251 -187337
832427904684731008 85202 2147 -13075 -187387
832427904702946432 85544 2354 -12922 -187351
832427904721161856 85522 2281 -12939 -187352
832427904739377280 85210 2140 -13045 -187386
832427904757592704 84553 1835 -13261 -187378
832427904775808128 83795 1420 -13585 -187401
832427904794023552 82971 987 -13874 -187390
832427904812238976 82121 525 -14212 -187423
832427904830454400 81488 178 -14376 -187390
832427904848669824 81031 -83 -14604 -187440
832427904866885120 80894 -133 -14613 -187389
832427904885100544 80832 -214 -14662 -187378
832427904903315968 80938 -52 -14619 -187384
832427904921531392 81349 129 -14428 -187323
832427904939746816 81749 302 -14318 -187323
832427904957962240 82059 525 -14253 -187368
832427904976177664 82362 708 -14118 -187412
832427904994393088 82680 808 -13990 -187361
832427905012608512 82887 902 -13998 -187390
832427905030823936 83057 967 -13898 -187417
832427905049039360 83147 1057 -13861 -187385
832427905067254656 83266 1078 -13794 -187392
832427905085470100 83413 1174 -13729 -187395
832427905103685888 83615 1275 -13620 -187407
832427905121901696 83935 1490 -13529 -187415
832427905140117632 84214 1594 -13445 -187466
832427905158333440 84600 1751 -13286 -187414
832427905176549248 84950 2031 -13149 -187373
832427905194765056 85313 2172 -13032 -187398
832427905212980992 85374 2261 -12956 -187388
832427905231196800 85261 2192 -13001 -187390
832427905249412608 84751 1964 -13206 -187407
832427905267628544 84103 1575 -13451 -187385
832427905285844352 83399 1200 -13744 -187418
832427905304060160 82640 787 -14039 -187405
832427905322276096 81960 415 -14265 -187395
832427905340491904 81343 114 -14440 -187385
832427905358707712 80949 -97 -14615 -187326
832427905376923520 80699 -282 -14754 -187405
832427905395139456 80659 -220 -14736 -187412
832427905413355264 80932 -130 -14643 -187405
832427905431571072 81384 142 -14461 -187376
832427905449787008 81760 334 -14325 -187344
832427905468002816 82199 553 -14212 -187392
832427905486218624 82523 692 -14113 -187480
832427905504434432 82960 914 -13918 -187415
832427905522650368 83134 1043 -13846 -187387
832427905540866176 83211 1041 -13790 -187397
832427905559081984 83262 1122 -13782 -187400
832427905577297920 83234 1135 -13820 -187404
832427905595513728 83326 1166 -13741 -187390
832427905613729536 83576 1291 -13682 -187388
832427905631945344 83987 1518 -13485 -187354
832427905650161280 84354 1635 -13380 -187378
832427905668377088 84795 1889 -13235 -187404
832427905686592896 85211 2195 -13032 -187381
832427905704808832 85576 2290 -12936 -187342
832427905723024690 85561 2307 -12925 -187402
832427905741240192 85122 2098 -13055 -187430
832427905759455744 84471 1766 -13376 -187425
832427905777671168 83637 1372 -13632 -187422
832427905795886720 82768 872 -13977 -187458
832427905814102272 82074 481 -14253 -187409
832427905832317824 81526 204 -14448 -187381
832427905850533248 81074 -25 -14652 -187353
832427905868748800 80860 -146 -14667 -187369
832427905886964352 80794 -175 -14721 -187392
832427905905179776 81050 -63 -14585 -187373
832427905923395328 81389 86 -14477 -187428
832427905941610880 81714 311 -14340 -187421
832427905959826432 82118 485 -14204 -187301
832427905978041856 82339 595 -14187 -187374
832427905996257408 82594 789 -14033 -187394
832427906014472960 82917 930 -13884 -187418
832427906032688512 83091 1038 -13836 -187338
832427906050903936 83141 1082 -13809 -187402
832427906069119488 83218 1110 -13800 -187361
832427906087335040 83402 1174 -13727 -187432
832427906105550464 83600 1263 -13699 -187396
832427906123766016 83922 1481 -13573 -187446
832427906141981568 84244 1623 -13418 -187390
832427906160197120 84516 1810 -13298 -187431
832427906178412544 84840 1948 -13215 -187431
832427906196628096 85276 2144 -13093 -187480
832427906214843648 85440 2231 -12985 -187428
832427906233059072 85263 2130 -13067 -187457
832427906251274624 84766 1943 -13254 -187422
832427906269490176 84053 1520 -13484 -187423
832427906287705728 83482 1121 -13744 -187342
832427906305921152 82663 753 -14064 -187417
832427906324136704 81817 365 -14271 -187444
832427906342352256 81273 68 -14537 -187371
832427906360567680 80813 -175 -14682 -187401
832427906378783268 80621 -256 -14757 -187406
832427906396997888 80773 -105 -14700 -187367
832427906415212544 81052 -45 -14646 -187463
832427906433427200 81470 192 -14445 -187403
832427906451641856 81794 335 -14356 -187401
832427906469856512 82262 585 -14167 -187397
832427906488071168 82639 784 -14036 -187371
832427906506285952 83012 966 -13893 -187390
832427906524500608 83108 1050 -13898 -187317
832427906542715264 83156 1077 -13877 -187383
832427906560929920 83162 1031 -13852 -187355
832427906579144576 83249 1104 -13813 -187375
832427906597359232 83452 1283 -13721 -187403
832427906615573888 83653 1359 -13638 -187415
832427906633788544 84044 1469 -13489 -187406
832427906652003200 84395 1707 -13370 -187432
832427906670217856 84849 1960 -13229 -187394
832427906688432640 85347 2264 -13031 -187380
832427906706647296 85568 2405 -12927 -187427
832427906724861952 85393 2325 -12957 -187394
832427906743076608 84971 2035 -13126 -187403
832427906761291264 84238 1680 -13437 -187438
832427906779505920 83551 1200 -13738 -187410
832427906797720576 82844 904 -13978 -187426
832427906815935232 82106 508 -14245 -187417
832427906834149888 81522 151 -14465 -187417
832427906852364544 81140 -28 -14609 -187388
832427906870579328 80893 -156 -14731 -187388
832427906888793984 80844 -160 -14706 -187386
832427906907008640 81038 -56 -14602 -187347
832427906925223296 81374 119 -14489 -187369
832427906943437952 81598 291 -14465 -187415
832427906961652608 81922 429 -14253 -187425
832427906979867264 82331 642 -14125 -187357
832427906998081920 82782 793 -14013 -187407
832427907016296576 83024 991 -13868 -187408
832427907034511328 83188 1076 -13808 -187393
832427907052723840 83235 1154 -13801 -187414
832427907070936320 83314 1177 -13746 -187378
832427907089148672 83486 1250 -13713 -187361
832427907107361152 83645 1370 -13626 -187369
832427907125573632 83902 1480 -13534 -187397
832427907143785984 84127 1659 -13445 -187427
832427907161998464 84470 1786 -13319 -187349
832427907180210944 84914 2024 -13148 -187425
832427907198423424 85380 2267 -13002 -187350
832427907216635776 85527 2303 -12954 -187369
832427907234848256 85271 2184 -13067 -187361
832427907253060736 84707 1935 -13349 -187400
832427907271273088 84026 1574 -13523 -187373
832427907289485568 83289 1152 -13781 -187376
832427907307698048 82481 724 -13967 -187357
832427907325910400 81687 262 -14376 -187396
832427907344122880 81140 24 -14538 -187393
832427907362335360 80751 -185 -14651 -187363
832427907380547840 80634 -258 -14727 -187354
832427907398760192 80878 -192 -14682 -187339
832427907416972672 81142 38 -14544 -187375
832427907435185152 81579 291 -14434 -187355
832427907453397504 81980 514 -14203 -187344
832427907471609984 82451 686 -14118 -187349
832427907489822464 82737 844 -14037 -187397
832427907508034816 83029 1023 -13871 -187356
832427907526247296 83123 1060 -13842 -187375
832427907544459776 83189 1054 -13814 -187362
832427907562672128 83180 1043 -13840 -187387
832427907580884608 83306 1124 -13768 -187368
832427907599097088 83477 1263 -13738 -187431
832427907617309568 83782 1395 -13556 -187321
832427907635521920 84136 1596 -13444 -187341
832427907653734400 84527 1741 -13312 -187336
832427907671946880 84956 1943 -13163 -187369
832427907690159232 85363 2218 -12963 -187400
832427907708371648 85527 2372 -12892 -187384
832427907726586112 85301 2218 -13018 -187390
832427907744800512 84907 1974 -13189 -187423
832427907763014912 84249 1658 -13403 -187400
832427907781229312 83520 1195 -13735 -187393
832427907799443712 82729 860 -13946 -187345
832427907817658112 82022 463 -14245 -187396
832427907835872512 81517 164 -14414 -187361
832427907854086912 81107 19 -14544 -187384
832427907872301312 80872 -129 -14685 -187405
832427907890515712 80903 -150 -14614 -187354
832427907908730240 80995 -114 -14613 -187371
832427907926944640 81298 102 -14482 -187338
832427907945159040 81637 265 -14387 -187338
832427907963373440 81995 454 -14265 -187339
832427907981587840 82431 661 -14116 -187392
832427907999802240 82810 872 -13921 -187392
832427908018016640 83092 1069 -13883 -187358
832427908036231040 83211 1156 -13784 -187395
832427908054445440 83388 1162 -13683 -187329
832427908072659840 83394 1212 -13706 -187403
832427908090874240 83505 1296 -13612 -187304
832427908109088640 83598 1305 -13632 -187430
832427908127303040 83824 1435 -13525 -187428
832427908145517440 84094 1579 -13411 -187410
832427908163731840 84599 1877 -13266 -187343
832427908181946240 85031 2132 -13111 -187373
832427908200160640 85438 2289 -12977 -187423
832427908218375040 85497 2341 -12897 -187378
832427908236589568 85200 2157 -13038 -187411
832427908254803968 84749 1916 -13237 -187354
832427908273018368 84078 1635 -13427 -187357
832427908291232768 83213 1123 -13774 -187345
832427908309447168 82323 679 -14108 -187340
832427908327661568 81545 240 -14376 -187368
832427908345875888 81059 -12 -14569 -187362
832427908364090496 80867 -175 -14680 -187357
832427908382305152 80768 -127 -14665 -187408
832427908400519808 80922 -127 -14610 -187328
832427908418734464 81254 55 -14499 -187356
832427908436949120 81599 273 -14360 -187429
832427908455163776 82126 559 -14165 -187350
832427908473378560 82449 768 -14063 -187335
832427908491593216 82784 892 -13934 -187323
832427908509807872 82974 1012 -13871 -187376
832427908528022528 83086 1062 -13834 -187384
832427908546237184 83122 1054 -13791 -187417
832427908564451840 83245 1143 -13752 -187337
832427908582666496 83348 1168 -13735 -187362
832427908600881152 83510 1319 -13676 -187371
832427908619095808 83768 1451 -13613 -187345
832427908637310464 84162 1570 -13466 -187343
832427908655525248 84489 1771 -13274 -187343
832427908673739904 84927 2030 -13213 -187400
832427908691954560 85322 2311 -13035 -187387
832427908710169216 85414 2310 -12939 -187360
832427908728383872 85200 2256 -13030 -187323
832427908746598528 84840 2016 -13182 -187354
832427908764813184 84171 1645 -13424 -187432
832427908783027840 83500 1266 -13736 -187390
832427908801242496 82715 864 -14001 -187412
832427908819457152 82031 432 -14238 -187419
832427908837671936 81485 188 -14406 -187387
832427908855886592 81091 -15 -14560 -187402
832427908874101248 80829 -181 -14652 -187375
832427908892315904 80791 -187 -14634 -187438
832427908910530560 80956 -91 -14619 -187377
832427908928745216 81262 82 -14492 -187355
832427908946959872 81683 242 -14426 -187409
832427908965174528 82126 480 -14195 -187343
832427908983389184 82525 737 -14104 -187359
832427909001603840 82891 925 -13935 -187362
832427909019818616 83078 1036 -13928 -187405
832427909038032384 83278 1086 -13796 -187379
832427909056246144 83309 1186 -13767 -187366
832427909074460032 83351 1156 -13789 -187390
832427909092673792 83476 1293 -13668 -187387
832427909110887680 83641 1386 -13636 -187329
832427909129101440 83815 1437 -13587 -187393
832427909147315328 84211 1653 -13436 -187379
832427909165529088 84644 1856 -13328 -187405
832427909183742976 85131 2129 -13146 -187409
832427909201956736 85444 2289 -12925 -187453
832427909220170624 85474 2295 -12983 -187419
832427909238384384 85286 2167 -13018 -187391
832427909256598272 84688 1884 -13262 -187410
832427909274812032 83933 1473 -13540 -187397
832427909293025920 83062 1069 -13889 -187474
832427909311239680 82216 678 -14159 -187423
832427909329453568 81441 193 -14498 -187376
832427909347667328 81027 -60 -14636 -187349
832427909365881216 80801 -196 -14712 -187357
832427909384094976 80751 -161 -14684 -187407
832427909402308736 80928 -98 -14670 -187400
832427909420522624 81312 109 -14517 -187347
832427909438736384 81654 294 -14350 -187375
832427909456950272 82081 539 -14191 -187391
832427909475164032 82443 592 -14100 -187381
832427909493377920 82706 854 -13992 -187398
832427909511591680 82856 905 -13945 -187381
832427909529805568 83094 1025 -13903 -187353
832427909548019328 83201 1097 -13818 -187431
832427909566233216 83277 1131 -13780 -187440
832427909584446976 83304 1160 -13798 -187438
832427909602660864 83563 1290 -13696 -187373
832427909620874624 83862 1403 -13607 -187392
832427909639088512 84225 1589 -13508 -187389
832427909657302272 84506 1718 -13389 -187465
832427909675516158 84986 1987 -13188 -187409
832427909693730816 85337 2161 -13107 -187391
832427909711945472 85433 2210 -13015 -187351
832427909730160128 85145 2119 -13080 -187429
832427909748374784 84806 1922 -13210 -187432
832427909766589440 84142 1528 -13478 -187400
832427909784804096 83442 1194 -13728 -187351
832427909803018880 82609 791 -14016 -187383
832427909821233536 81963 508 -14267 -187350
832427909839448192 81457 176 -14489 -187366
832427909857662848 80988 -49 -14629 -187388
832427909875877504 80778 -159 -14669 -187384
832427909894092160 80731 -249 -14715 -187398
832427909912306816 80898 -119 -14662 -187359
832427909930521472 81331 123 -14452 -187380
832427909948736128 81699 260 -14372 -187414
832427909966950784 82186 614 -14173 -187338
832427909985165568 82603 729 -14041 -187376
832427910003380224 82917 883 -13940 -187405
832427910021594880 83125 1064 -13895 -187425
832427910039809536 83268 1202 -13787 -187364
832427910058024192 83289 1180 -13794 -187311
832427910076238848 83320 1177 -13762 -187396
832427910094453504 83348 1221 -13741 -187310
832427910112668160 83517 1279 -13741 -187367
832427910130882816 83923 1482 -13508 -187404
832427910149097472 84330 1740 -13339 -187414
832427910167312256 84760 1967 -13206 -187421
832427910185526912 85225 2181 -13041 -187346
832427910203741568 85521 2269 -12922 -187427
832427910221956224 85520 2313 -12905 -187396
832427910240170880 85127 2178 -13009 -187381
832427910258385536 84558 1814 -13308 -187396
832427910276600192 83752 1442 -13653 -187358
832427910294814848 82901 997 -13900 -187354
832427910313029504 82101 573 -14217 -187335
832427910331244218 81492 193 -14448 -187374
832427910349458816 81044 -40 -14650 -187361
832427910367673472 80782 -196 -14719 -187383
832427910385888128 80744 -162 -14605 -187389
832427910404102784 81019 -31 -14600 -187401
832427910422317440 81330 149 -14491 -187418
832427910440532096 81733 298 -14358 -187368
832427910458746880 81989 409 -14239 -187384
832427910476961536 82293 649 -14170 -187446
832427910495176192 82590 826 -14013 -187385
832427910513390848 82863 942 -13901 -187442
832427910531605504 83137 1076 -13847 -187361
832427910549820160 83258 1089 -13782 -187390
832427910568034816 83346 1160 -13742 -187394
832427910586249472 83457 1192 -13692 -187389
832427910604464128 83685 1283 -13610 -187366
832427910622678784 83988 1513 -13512 -187343
832427910640893568 84207 1647 -13456 -187380
832427910659108224 84527 1826 -13272 -187395
832427910677322880 84915 2020 -13158 -187414
832427910695537536 85305 2190 -12995 -187404
832427910713752192 85498 2288 -12925 -187402
832427910731966848 85252 2187 -13014 -187369
832427910750181504 84755 1911 -13214 -187344
832427910768396160 84057 1533 -13507 -187403
832427910786610816 83279 1135 -13761 -187383
832427910804825472 82688 787 -14011 -187389
832427910823040128 81943 448 -14204 -187386
832427910841254912 81336 134 -14487 -187316
832427910859469568 80947 -144 -14666 -187337
832427910877684224 80708 -259 -14746 -187389
832427910895898880 80660 -256 -14784 -187362
832427910914113536 80978 -40 -14619 -187378
832427910932328192 81465 155 -14428 -187387
832427910950542848 81809 353 -14322 -187415
832427910968757504 82191 557 -14164 -187363
832427910986972160 82634 771 -13989 -187371
832427911005186940 83018 967 -13956 -187440
832427911023399040 83176 1094 -13817 -187418
832427911041611136 83256 1117 -13833 -187401
832427911059823232 83237 1156 -13778 -187411
832427911078035456 83189 1166 -13806 -187370
832427911096247552 83364 1202 -13721 -187334
832427911114459648 83618 1338 -13632 -187323
832427911132671744 83935 1489 -13487 -187389
832427911150883968 84280 1643 -13374 -187364
832427911169096064 84774 1965 -13152 -187357
832427911187308160 85290 2215 -13002 -187346
832427911205520256 85624 2326 -12897 -187364
832427911223732480 85524 2317 -12950 -187362
832427911241944576 85145 2113 -13066 -187384
832427911260156672 84457 1786 -13294 -187422
832427911278368768 83584 1302 -13638 -187377
832427911296580864 82765 875 -13921 -187367
832427911314793088 82028 495 -14247 -187418
832427911333005184 81518 260 -14451 -187352
832427911351217280 81137 -15 -14578 -187359
832427911369429376 80814 -171 -14702 -187427
832427911387641600 80833 -236 -14732 -187317
832427911405853696 81077 -63 -14623 -187374
832427911424065792 81372 130 -14477 -187387
832427911442277888 81699 319 -14367 -187415
832427911460489984 81999 443 -14292 -187408
832427911478702208 82324 563 -14123 -187411
832427911496914304 82622 802 -14028 -187445
832427911515126400 83010 989 -13887 -187349
832427911533338496 83198 999 -13883 -187412
832427911551550720 83228 1099 -13814 -187385
832427911569762816 83301 1089 -13797 -187397
832427911587974912 83460 1180 -13761 -187371
832427911606187008 83715 1355 -13706 -187396
832427911624399232 83906 1499 -13548 -187381
832427911642611328 84225 1634 -13410 -187400
832427911660823446 84525 1793 -13308 -187368
832427911679037568 84846 2024 -13180 -187462
832427911697251712 85318 2222 -13008 -187396
832427911715465984 85476 2334 -12917 -187304
832427911733680128 85187 2134 -13038 -187421
832427911751894272 84637 1891 -13215 -187427
832427911770108544 84016 1522 -13490 -187370
832427911788322688 83365 1213 -13726 -187356
832427911806536832 82575 792 -13980 -187400
832427911824751104 81880 384 -14325 -187466
832427911842965248 81302 93 -14524 -187346
832427911861179392 80851 -143 -14645 -187357
832427911879393664 80694 -239 -14715 -187366
832427911897607808 80769 -196 -14707 -187397
832427911915822080 81087 -80 -14626 -187356
832427911934036224 81493 148 -14428 -187381
832427911952250368 81941 395 -14298 -187398
832427911970464640 82269 560 -14183 -187417
832427911988678784 82660 768 -13994 -187407
832427912006892928 82949 1010 -13866 -187395
832427912025107200 83081 1045 -13868 -187422
832427912043321344 83130 1072 -13825 -187396
832427912061535488 83159 1042 -13866 -187393
832427912079749760 83209 1075 -13848 -187385
832427912097963904 83387 1220 -13738 -187388
832427912116178048 83723 1418 -13622 -187362
832427912134392320 84012 1587 -13477 -187384
832427912152606464 84437 1768 -13309 -187374
832427912170820608 84861 2007 -13167 -187398
832427912189034880 85387 2260 -12990 -187398
832427912207249024 85609 2462 -12895 -187353
832427912225463296 85412 2324 -12991 -187373
832427912243677440 85003 2078 -13122 -187321
832427912261891584 84280 1720 -13382 -187353
832427912280105856 83574 1335 -13611 -187346
832427912298320054 82819 884 -13953 -187346
832427912316535168 82072 468 -14240 -187398
832427912334750336 81488 143 -14435 -187383
832427912352965504 81057 -77 -14572 -187398
832427912371180672 80901 -168 -14677 -187391
832427912389395712 80902 -150 -14678 -187381
832427912407610880 81064 -75 -14635 -187410
832427912425826048 81315 86 -14498 -187379
832427912444041216 81631 304 -14355 -187398
832427912462256384 81927 412 -14306 -187395
832427912480471552 82426 667 -14033 -187334
832427912498686592 82776 833 -13983 -187396
832427912516901760 83041 990 -13870 -187388
832427912535116928 83167 1038 -13863 -187441
832427912553332096 83313 1149 -13735 -187363
832427912571547264 83428 1148 -13681 -187337
832427912589762432 83572 1254 -13678 -187368
832427912607977472 83699 1333 -13645 -187372
832427912626192640 83973 1528 -13487 -187350
832427912644407808 84140 1628 -13435 -187407
832427912662622976 84484 1805 -13275 -187356
832427912680838144 84997 2069 -13120 -187371
832427912699053312 85398 2292 -12979 -187404
832427912717268480 85539 2309 -12958 -187374
832427912735483520 85229 2167 -13006 -187378
832427912753698688 84690 1906 -13254 -187391
832427912771913856 84003 1542 -13517 -187364
832427912790129024 83294 1171 -13768 -187364
832427912808344192 82457 684 -14099 -187407
832427912826559360 81713 281 -14367 -187409
832427912844774400 81094 -7 -14611 -187327
832427912862989568 80731 -210 -14728 -187438
832427912881204736 80775 -227 -14769 -187346
832427912899419904 80878 -219 -14785 -187379
832427912917635072 81234 19 -14526 -187337
832427912935850230 81569 239 -14413 -187355
832427912954064896 81931 399 -14298 -187275
832427912972279552 82375 623 -14127 -187346
832427912990494208 82734 821 -14037 -187334
832427913008708864 83024 970 -13878 -187351
832427913026923520 83083 1015 -13809 -187343
832427913045138176 83032 1019 -13838 -187434
832427913063352960 83179 1087 -13794 -187300
832427913081567616 83282 1171 -13785 -187366
832427913099782272 83518 1292 -13685 -187367
832427913117996928 83773 1443 -13536 -187381
832427913136211584 84140 1554 -13426 -187324
832427913154426240 84571 1767 -13389 -187374
832427913172640896 85042 2058 -13115 -187354
832427913190855552 85477 2290 -12924 -187310
832427913209070208 85542 2403 -12915 -187339
832427913227284864 85293 2256 -13013 -187320
832427913245499648 84762 1958 -13163 -187339
832427913263714304 84254 1706 -13426 -187324
832427913281928960 83534 1280 -13691 -187353
832427913300143616 82768 803 -14002 -187357
832427913318358272 82028 469 -14229 -187345
832427913336572928 81464 173 -14464 -187397
832427913354787584 81137 -49 -14524 -187350
832427913373002240 80981 -58 -14520 -187345
832427913391216896 80972 -78 -14616 -187362
832427913409431552 81071 -5 -14553 -187342
832427913427646336 81291 63 -14478 -187404
832427913445860992 81632 251 -14321 -187373
832427913464075648 82078 489 -14240 -187366
832427913482290304 82540 720 -14034 -187355
832427913500504960 82804 882 -13921 -187366
832427913518719616 82981 979 -13879 -187393
832427913536934272 83228 1074 -13860 -187312
832427913555148928 83364 1155 -13787 -187364
832427913573363584 83423 1198 -13733 -187371
832427913591578240 83479 1250 -13683 -187355
832427913609792958 83592 1297 -13643 -187390
832427913628006144 83886 1521 -13536 -187369
832427913646219392 84230 1608 -13444 -187355
832427913664432640 84666 1843 -13275 -187347
832427913682645888 85081 2076 -13119 -187355
832427913700859008 85504 2309 -12983 -187360
832427913719072256 85488 2304 -12978 -187336
832427913737285504 85230 2190 -13042 -187384
832427913755498752 84720 1894 -13231 -187379
832427913773712000 83960 1401 -13604 -187424
832427913791925248 83104 1053 -13864 -187374
832427913810138368 82236 638 -14147 -187344
832427913828351616 81527 252 -14416 -187340
832427913846564864 81024 -5 -14562 -187364
832427913864778112 80784 -135 -14672 -187358
832427913882991360 80790 -119 -14696 -187357
832427913901204608 80890 -144 -14657 -187333
832427913919417728 81206 43 -14571 -187394
832427913937630976 81584 257 -14404 -187394
832427913955844224 82007 475 -14252 -187410
832427913974057472 82391 646 -14136 -187423
832427913992270720 82705 808 -14023 -187403
832427914010483968 82912 911 -13914 -187390
832427914028697088 83018 966 -13897 -187351
832427914046910336 83037 992 -13854 -187391
832427914065123584 83214 1172 -13764 -187373
832427914083336832 83370 1182 -13784 -187401
832427914101550080 83530 1291 -13716 -187401
832427914119763328 83826 1459 -13615 -187391
832427914137976448 84198 1666 -13455 -187376
832427914156189696 84581 1808 -13375 -187361
832427914174402944 84965 2040 -13119 -187295
832427914192616192 85380 2271 -12966 -187340
832427914210829440 85455 2304 -12979 -187330
832427914229042688 85179 2147 -13101 -187327
832427914247255808 84753 1888 -13290 -187412
832427914265469128 84131 1680 -13442 -187371
832427914283682688 83471 1220 -13734 -187395
832427914301896192 82709 846 -13944 -187376
832427914320109824 81997 362 -14325 -187446
832427914338323328 81507 134 -14448 -187377
832427914356536960 81098 -8 -14588 -187401
832427914374750464 80851 -175 -14671 -187388
832427914392964096 80856 -158 -14657 -187307
832427914411177600 80965 -88 -14676 -187366
832427914429391232 81163 66 -14540 -187333
832427914447604736 81673 235 -14331 -187330
832427914465818368 82143 489 -14189 -187366
832427914484031872 82535 771 -14066 -187368
832427914502245504 82927 960 -13916 -187359
832427914520459008 83117 1072 -13863 -187342
832427914538672640 83225 1140 -13806 -187378
832427914556886144 83324 1169 -13766 -187346
832427914575099776 83352 1249 -13725 -187388
832427914593313280 83405 1258 -13739 -187372
832427914611526912 83614 1330 -13636 -187330
832427914629740416 83947 1571 -13501 -187316
832427914647954048 84271 1690 -13359 -187404
832427914666167552 84654 1902 -13230 -187374
832427914684381184 85198 2105 -13036 -187338
832427914702594688 85576 2325 -12908 -187354
832427914720808320 85564 2356 -12859 -187362
832427914739021824 85217 2212 -13012 -187400
832427914757235456 84669 1863 -13260 -187363
832427914775448960 83842 1507 -13523 -187343
832427914793662592 82992 1023 -13848 -187346
832427914811876096 82124 585 -14184 -187389
832427914830089728 81563 226 -14425 -187332
832427914848303232 81064 3 -14621 -187315
832427914866516864 80891 -91 -14625 -187248
832427914884730368 80779 -150 -14676 -187321
832427914902944000 80914 -113 -14633 -187362
832427914921157518 81351 35 -14538 -187345
832427914939371392 81679 239 -14416 -187337
832427914957585280 82113 456 -14237 -187366
832427914975799040 82378 663 -14151 -187310
832427914994012928 82664 839 -13989 -187381
832427915012226816 82800 927 -13915 -187400
832427915030440576 83049 974 -13870 -187338
832427915048654464 83131 1050 -13821 -187329
832427915066868352 83243 1136 -13832 -187360
832427915085082112 83352 1219 -13724 -187403
832427915103296000 83583 1371 -13664 -187327
832427915121509888 83938 1528 -13524 -187302
832427915139723648 84239 1711 -13452 -187293
832427915157937536 84522 1871 -13343 -187338
832427915176151296 84908 2062 -13134 -187346
832427915194365184 85331 2255 -13036 -187352
832427915212579072 85320 2253 -13025 -187390
832427915230792832 85238 2256 -13067 -187327
832427915249006720 84725 1964 -13289 -187371
832427915267220608 84062 1563 -13495 -187422
832427915285434368 83384 1225 -13751 -187387
832427915303648256 82626 797 -14028 -187360
832427915321862144 82054 514 -14277 -187351
832427915340075904 81409 192 -14474 -187359
832427915358289792 80924 -64 -14589 -187277
832427915376503680 80722 -183 -14741 -187392
832427915394717440 80723 -221 -14747 -187357
832427915412931328 80920 -188 -14646 -187378
832427915431145216 81329 70 -14521 -187413
832427915449358976 81702 284 -14306 -187374
832427915467572864 82080 502 -14192 -187392
832427915485786752 82515 720 -14047 -187387
832427915504000512 82866 865 -13974 -187389
832427915522214400 83138 982 -13801 -187413
832427915540428288 83268 1085 -13778 -187379
832427915558642048 83324 1156 -13723 -187350
832427915576855936 83276 1208 -13775 -187395
832427915595069728 83342 1214 -13697 -187396
832427915613284352 83573 1259 -13645 -187413
832427915631499008 83901 1444 -13503 -187368
832427915649713664 84340 1719 -13368 -187347
832427915667928320 84767 1948 -13194 -187398
832427915686142976 85173 2136 -13044 -187353
832427915704357632 85510 2288 -12941 -187361
832427915722572416 85458 2246 -13039 -187408
832427915740787072 85101 2134 -13114 -187337
832427915759001728 84488 1835 -13285 -187354
832427915777216384 83702 1412 -13581 -187337
832427915795431040 82783 908 -13957 -187322
832427915813645696 82075 533 -14195 -187316
832427915831860352 81430 123 -14446 -187332
832427915850075008 81046 -22 -14588 -187304
832427915868289664 80791 -163 -14704 -187367
832427915886504320 80773 -142 -14654 -187370
832427915904719104 81008 -59 -14584 -187405
832427915922933760 81359 56 -14524 -187424
832427915941148416 81662 299 -14369 -187357
832427915959363072 81962 483 -14256 -187432
832427915977577728 82309 643 -14070 -187338
832427915995792384 82675 829 -13967 -187366
832427916014007040 82884 947 -13882 -187419
832427916032221696 83101 1075 -13792 -187381
832427916050436352 83185 1111 -13833 -187423
832427916068651008 83317 1180 -13799 -187326
832427916086865792 83424 1194 -13709 -187405
832427916105080448 83735 1336 -13629 -187378
832427916123295104 84038 1476 -13479 -187337
832427916141509760 84330 1670 -13419 -187337
832427916159724416 84621 1831 -13315 -187350
832427916177939072 84874 2005 -13196 -187371
832427916196153728 85321 2219 -13097 -187378
832427916214368384 85458 2300 -13017 -187378
832427916232583120 85211 2161 -13024 -187357
832427916250797824 84736 1940 -13209 -187368
832427916269012480 84074 1566 -13417 -187339
832427916287227136 83371 1215 -13722 -187326
832427916305441792 82676 787 -13935 -187374
832427916323656448 81922 435 -14276 -187363
832427916341871104 81348 112 -14480 -187321
832427916360085888 80944 -100 -14635 -187369
832427916378300544 80686 -226 -14791 -187412
832427916396515200 80778 -260 -14707 -187376
832427916414729856 81022 -137 -14594 -187408
832427916432944512 81481 146 -14397 -187390
832427916451159168 81882 413 -14259 -187358
832427916469373824 82288 609 -14156 -187358
832427916487588480 82687 829 -13999 -187390
832427916505803136 82986 921 -13903 -187370
832427916524017792 83043 1064 -13875 -187394
832427916542232576 83162 1168 -13851 -187334
832427916560447232 83235 1116 -13827 -187308
832427916578661888 83185 1107 -13875 -187370
832427916596876544 83355 1165 -13815 -187389
832427916615091200 83574 1335 -13664 -187391
832427916633305856 84012 1496 -13557 -187360
832427916651520512 84405 1731 -13372 -187409
832427916669735168 84837 1939 -13165 -187335
832427916687949824 85330 2228 -12974 -187356
832427916706164480 85545 2417 -12874 -187380
832427916724379264 85443 2303 -12905 -187326
832427916742593920 84999 2009 -13161 -187403
832427916760808576 84342 1757 -13329 -187339
832427916779023232 83539 1294 -13708 -187353
832427916797237888 82812 885 -13982 -187352
832427916815452544 82068 475 -14247 -187394
832427916833667200 81513 161 -14445 -187374
832427916851881856 81076 -37 -14579 -187339
832427916870096512 80893 -142 -14682 -187373
832427916888310400 80955 -139 -14684 -187357
832427916906524288 81140 51 -14558 -187328
832427916924738176 81425 170 -14486 -187369
832427916942951936 81736 311 -14365 -187370
832427916961165824 82015 458 -14196 -187383
832427916979379712 82292 661 -14122 -187364
832427916997593600 82730 799 -13989 -187359
832427917015807488 83030 908 -13923 -187344
832427917034021376 83121 1045 -13833 -187379
832427917052235136 83297 1145 -13765 -187359
832427917070449024 83362 1171 -13733 -187338
