TIMESTAMP PPG0 PPG1 PPG2 AMBIENT
832428053129315456 82026 448 -14178 -187360
832428053147497216 81966 430 -14174 -187316
832428053165679104 81846 362 -14281 -187332
832428053183860864 81917 392 -14226 -187336
832428053202042752 81920 412 -14222 -187404
832428053220224512 82045 415 -14200 -187383
832428053238406400 82058 487 -14181 -187372
832428053256588160 82094 454 -14177 -187356
832428053274770048 82191 512 -14132 -187300
832428053292951808 82097 497 -14188 -187380
832428053311133696 82084 471 -14190 -187324
832428053329315456 81968 455 -14177 -187324
832428053347497216 81930 454 -14210 -187371
832428053365679104 81869 361 -14227 -187349
832428053383860864 81921 417 -14218 -187340
832428053402042752 81980 409 -14195 -187298
832428053420224512 81955 435 -14136 -187312
832428053438406400 81986 387 -14216 -187295
832428053456588160 82030 453 -14200 -187325
832428053474770048 82108 481 -14159 -187375
832428053492951808 82104 465 -14221 -187319
832428053511133696 82075 496 -14136 -187311
832428053529315456 81978 424 -14199 -187397
832428053547497216 81884 436 -14195 -187324
832428053565679104 81839 390 -14206 -187309
832428053583860864 81925 462 -14202 -187322
832428053602042752 82050 486 -14135 -187308
832428053620224512 82048 513 -14195 -187366
832428053638406400 82046 451 -14161 -187368
832428053656588160 82083 448 -14177 -187397
832428053674770048 82159 517 -14143 -187391
832428053692951808 82202 558 -14122 -187340
832428053711133696 82115 486 -14165 -187315
832428053729315456 82000 430 -14246 -187375
832428053747497216 81850 351 -14285 -187395
832428053765679104 81938 406 -14190 -187342
832428053783860864 82042 453 -14189 -187358
832428053802042752 82089 489 -14186 -187330
832428053820224512 82092 492 -14177 -187392
832428053838406400 82020 502 -14186 -187432
832428053856588160 82147 512 -14090 -187361
832428053874770048 82149 504 -14166 -187407
832428053892951808 82087 505 -14154 -187369
832428053911133696 81973 447 -14228 -187360
832428053929315456 81918 385 -14223 -187383
832428053947497216 81877 369 -14248 -187362
832428053965679132 81928 432 -14209 -187334
832428053983892736 81896 461 -14288 -187404
832428054002106368 81994 449 -14221 -187333
832428054020320000 81930 454 -14255 -187462
832428054038533632 82031 417 -14179 -187357
832428054056747136 82105 448 -14184 -187366
832428054074960768 82116 491 -14150 -187343
832428054093174400 82078 465 -14170 -187368
832428054111388032 81988 447 -14193 -187315
832428054129601664 81960 445 -14226 -187374
832428054147815296 81906 304 -14299 -187357
832428054166028928 81943 397 -14255 -187347
832428054184242560 81998 394 -14279 -187385
832428054202456064 81972 399 -14256 -187391
832428054220669696 82039 480 -14248 -187391
832428054238883328 82073 472 -14186 -187370
832428054257096960 82129 488 -14229 -187339
832428054275310592 82097 454 -14157 -187355
832428054293524224 82068 406 -14159 -187335
832428054311737856 82022 397 -14202 -187328
832428054329951360 81879 350 -14246 -187333
832428054348164992 81886 377 -14265 -187346
832428054366378624 81905 394 -14235 -187357
832428054384592256 81912 438 -14181 -187368
832428054402805888 81985 468 -14168 -187327
832428054421019520 82008 481 -14153 -187337
832428054439233152 82054 441 -14134 -187345
832428054457446656 82082 516 -14184 -187287
832428054475660288 82023 426 -14191 -187359
832428054493873920 81976 502 -14179 -187333
832428054512087552 81957 409 -14201 -187357
832428054530301184 81827 360 -14268 -187427
832428054548514816 81945 454 -14235 -187306
832428054566728448 81973 443 -14219 -187329
832428054584942080 82039 471 -14191 -187358
832428054603155584 81960 435 -14207 -187355
832428054621369216 82042 470 -14218 -187360
832428054639582848 82209 517 -14128 -187376
832428054657796480 82097 534 -14169 -187441
832428054676010112 82083 477 -14267 -187414
832428054694223744 82020 503 -14159 -187383
832428054712437376 81989 452 -14268 -187401
832428054730650948 81851 351 -14309 -187370
832428054748864128 81878 373 -14271 -187403
832428054767077248 81931 396 -14286 -187442
832428054785290368 82045 457 -14185 -187403
832428054803503616 82027 445 -14236 -187374
832428054821716736 82030 514 -14165 -187369
832428054839929856 82054 474 -14144 -187400
832428054858142976 82076 458 -14190 -187347
832428054876356096 82061 487 -14199 -187367
832428054894569216 82013 473 -14204 -187340
832428054912782464 81913 422 -14265 -187329
832428054930995584 81840 356 -14259 -187345
832428054949208704 81885 371 -14216 -187363
832428054967421824 81910 451 -14263 -187350
832428054985634944 81961 429 -14172 -187373
832428055003848064 82022 426 -14234 -187355
832428055022061312 82032 400 -14171 -187344
832428055040274432 82077 456 -14164 -187358
832428055058487552 82208 539 -14110 -187350
832428055076700672 82697 757 -13975 -187360
832428055094913792 82972 964 -13795 -187352
832428055113127040 83338 1130 -13735 -187377
832428055131340160 83777 1343 -13597 -187328
832428055149553280 84179 1611 -13418 -187386
832428055167766400 84664 1851 -13228 -187366
832428055185979520 85187 2166 -12967 -187336
832428055204192640 85512 2383 -12913 -187345
832428055222405888 85483 2312 -12848 -187324
832428055240619008 85252 2190 -13006 -187390
832428055258832128 84716 1868 -13160 -187369
832428055277045248 83881 1452 -13482 -187342
832428055295258368 82995 973 -13794 -187338
832428055313471488 82151 501 -14181 -187364
832428055331684736 81565 202 -14371 -187317
832428055349897856 81077 -35 -14553 -187376
832428055368110976 80929 -133 -14575 -187319
832428055386324096 80894 -140 -14648 -187323
832428055404537216 80971 -102 -14597 -187339
832428055422750336 81319 52 -14499 -187398
832428055440963502 81743 279 -14267 -187351
832428055459176576 82127 481 -14132 -187319
832428055477389696 82446 728 -13990 -187361
832428055495602816 82726 862 -13858 -187337
832428055513816064 82934 976 -13841 -187376
832428055532029184 83168 957 -13815 -187336
832428055550242304 83295 1153 -13756 -187345
832428055568455424 83416 1194 -13717 -187322
832428055586668544 83510 1219 -13709 -187362
832428055604881664 83698 1369 -13637 -187372
832428055623094912 83990 1490 -13426 -187344
832428055641308032 84289 1638 -13359 -187318
832428055659521152 84632 1842 -13215 -187321
832428055677734272 85033 2073 -13006 -187316
832428055695947392 85360 2304 -12937 -187342
832428055714160512 85404 2311 -12904 -187332
832428055732373760 85305 2247 -12929 -187288
832428055750586880 84871 1984 -13158 -187304
832428055768800000 84214 1633 -13331 -187353
832428055787013120 83512 1223 -13675 -187342
832428055805226240 82741 833 -13958 -187319
832428055823439488 82028 438 -14213 -187321
832428055841652608 81454 174 -14425 -187339
832428055859865728 81049 -81 -14574 -187373
832428055878078848 80850 -125 -14620 -187412
832428055896291968 80816 -208 -14664 -187353
832428055914505088 80982 -98 -14599 -187366
832428055932718336 81375 95 -14491 -187344
832428055950931456 81857 390 -14303 -187304
832428055969144576 82273 591 -14173 -187332
832428055987357696 82693 770 -13954 -187357
832428056005570816 83036 990 -13849 -187342
832428056023783936 83187 1067 -13743 -187369
832428056041997184 83282 1186 -13746 -187337
832428056060210304 83362 1205 -13731 -187327
832428056078423424 83316 1132 -13721 -187356
832428056096636544 83365 1185 -13718 -187371
832428056114849772 83603 1286 -13632 -187300
832428056133062912 83975 1464 -13476 -187345
832428056151276032 84335 1718 -13319 -187435
832428056169489152 84786 1931 -13165 -187336
832428056187702272 85234 2187 -13015 -187332
832428056205915264 85510 2301 -12873 -187302
832428056224128384 85501 2278 -12878 -187388
832428056242341504 85114 2104 -13039 -187352
832428056260554624 84552 1795 -13226 -187412
832428056278767744 83731 1345 -13547 -187329
832428056296980864 82886 909 -13857 -187368
832428056315193856 82193 522 -14172 -187354
832428056333406976 81578 250 -14427 -187315
832428056351620096 81153 -6 -14589 -187417
832428056369833216 80965 -102 -14619 -187388
832428056388046336 80923 -184 -14618 -187398
832428056406259456 81064 -60 -14631 -187356
832428056424472576 81409 62 -14433 -187317
832428056442685568 81721 282 -14324 -187369
832428056460898688 82124 502 -14158 -187374
832428056479111808 82454 652 -14005 -187364
832428056497324928 82673 765 -13962 -187426
832428056515538048 82974 919 -13909 -187419
832428056533751168 83199 1065 -13777 -187334
832428056551964160 83261 1120 -13741 -187341
832428056570177280 83406 1280 -13674 -187353
832428056588390400 83528 1298 -13618 -187338
832428056606603520 83795 1407 -13500 -187362
832428056624816640 84058 1578 -13408 -187282
832428056643029760 84276 1677 -13330 -187361
832428056661242752 84631 1788 -13211 -187393
832428056679455872 85039 2094 -13040 -187320
832428056697668992 85344 2291 -12938 -187308
832428056715882112 85468 2356 -12923 -187345
832428056734095232 85295 2237 -12965 -187336
832428056752308352 84772 1916 -13149 -187345
832428056770521374 84112 1583 -13428 -187366
832428056788732928 83492 1224 -13610 -187283
832428056806944512 82695 767 -13957 -187358
832428056825156224 82007 440 -14205 -187309
832428056843367808 81317 73 -14472 -187354
832428056861579392 80939 -113 -14598 -187354
832428056879790976 80770 -242 -14682 -187310
832428056898002688 80805 -193 -14650 -187317
832428056916214272 81108 -23 -14517 -187329
832428056934425856 81537 145 -14375 -187337
832428056952637440 81946 369 -14167 -187324
832428056970849152 82370 633 -14035 -187322
832428056989060736 82724 872 -13926 -187312
832428057007272320 83062 982 -13815 -187307
832428057025483904 83296 1138 -13695 -187335
832428057043695616 83309 1117 -13688 -187299
832428057061907200 83258 1107 -13724 -187360
832428057080118784 83282 1139 -13782 -187393
832428057098330368 83487 1240 -13709 -187343
832428057116542080 83760 1402 -13547 -187303
832428057134753664 84035 1506 -13477 -187307
832428057152965248 84415 1743 -13272 -187351
832428057171176832 84858 1942 -13101 -187281
832428057189388544 85352 2169 -12977 -187351
832428057207600128 85650 2377 -12882 -187373
832428057225811712 85488 2311 -12912 -187414
832428057244023296 85077 2073 -13047 -187359
832428057262235008 84422 1777 -13284 -187340
832428057280446592 83615 1354 -13550 -187374
832428057298658176 82829 888 -13872 -187396
832428057316869760 82152 483 -14119 -187371
832428057335081472 81619 241 -14305 -187334
832428057353293056 81093 -9 -14571 -187371
832428057371504640 80911 -171 -14667 -187394
832428057389716224 80959 -130 -14629 -187342
832428057407927944 81145 8 -14545 -187309
832428057426140416 81411 188 -14333 -187341
832428057444352896 81778 345 -14284 -187324
832428057462565248 82157 525 -14150 -187347
832428057480777728 82341 678 -14088 -187369
832428057498990080 82831 887 -13861 -187391
832428057517202560 83073 974 -13777 -187345
832428057535414912 83220 1043 -13742 -187394
832428057553627392 83342 1092 -13723 -187375
832428057571839744 83455 1088 -13691 -187360
832428057590052224 83613 1319 -13608 -187335
832428057608264576 83813 1446 -13578 -187355
832428057626477056 84038 1547 -13433 -187317
832428057644689408 84322 1664 -13326 -187288
832428057662901888 84664 1848 -13216 -187363
832428057681114240 84948 2024 -13109 -187352
832428057699326720 85450 2252 -12938 -187323
832428057717539072 85498 2345 -12910 -187357
832428057735751552 85309 2192 -12982 -187323
832428057753964032 84795 1917 -13205 -187315
832428057772176384 84113 1562 -13401 -187349
832428057790388864 83462 1219 -13682 -187295
832428057808601216 82661 822 -13968 -187333
832428057826813696 81918 430 -14251 -187326
832428057845026048 81321 96 -14469 -187337
832428057863238528 80850 -168 -14601 -187380
832428057881450880 80771 -247 -14684 -187326
832428057899663360 80940 -201 -14612 -187342
832428057917875712 81173 -5 -14523 -187323
832428057936088192 81570 166 -14332 -187288
832428057954300544 81941 382 -14213 -187307
832428057972513024 82439 700 -14034 -187301
832428057990725376 82926 934 -13838 -187338
832428058008937856 83126 1093 -13799 -187349
832428058027150208 83268 1083 -13713 -187328
832428058045362688 83300 1037 -13730 -187320
832428058063575040 83280 1104 -13742 -187320
832428058081787520 83428 1195 -13656 -187333
832428058099999890 83552 1248 -13621 -187418
832428058118211840 83719 1397 -13516 -187387
832428058136423808 84105 1594 -13384 -187374
832428058154635904 84457 1774 -13282 -187354
832428058172847872 84985 2033 -13069 -187284
832428058191059840 85414 2267 -12899 -187313
832428058209271936 85670 2395 -12816 -187292
832428058227483904 85530 2289 -12881 -187295
832428058245695872 84956 2096 -13065 -187332
832428058263907968 84257 1665 -13360 -187342
832428058282119936 83518 1294 -13646 -187390
832428058300331904 82829 912 -13906 -187360
832428058318544000 82181 589 -14106 -187352
832428058336755968 81663 281 -14326 -187346
832428058354967936 81275 14 -14496 -187316
832428058373179904 81051 -15 -14550 -187336
832428058391392000 81063 -62 -14548 -187306
832428058409603968 81145 40 -14474 -187351
832428058427815936 81331 151 -14435 -187318
832428058446028032 81749 292 -14340 -187341
832428058464240000 81947 512 -14200 -187312
832428058482451968 82467 670 -13989 -187374
832428058500664064 82828 929 -13874 -187346
832428058518876032 83111 1059 -13744 -187325
832428058537088000 83248 1175 -13706 -187349
832428058555300096 83324 1163 -13724 -187370
832428058573512064 83523 1231 -13596 -187339
832428058591724032 83711 1357 -13593 -187316
832428058609936128 83748 1414 -13556 -187391
832428058628148096 84008 1488 -13448 -187306
832428058646360064 84237 1625 -13398 -187342
832428058664572160 84605 1839 -13253 -187380
832428058682784128 85141 2081 -13074 -187323
832428058700996096 85538 2327 -12868 -187299
832428058719208192 85572 2344 -12919 -187317
832428058737420204 85348 2186 -12973 -187342
832428058755632512 84790 1898 -13199 -187354
832428058773844864 84093 1565 -13410 -187330
832428058792057088 83376 1178 -13684 -187311
832428058810269440 82540 754 -13983 -187343
832428058828481664 81730 321 -14321 -187390
832428058846694016 81163 44 -14448 -187323
832428058864906240 80903 -135 -14611 -187326
832428058883118592 80860 -134 -14585 -187330
832428058901330816 80990 -100 -14528 -187330
832428058919543168 81313 24 -14475 -187296
832428058937755520 81662 233 -14312 -187332
832428058955967744 82050 449 -14148 -187355
832428058974180096 82542 700 -14056 -187380
832428058992392320 82938 901 -13936 -187318
832428059010604672 83102 1020 -13793 -187336
832428059028816896 83181 1081 -13749 -187302
832428059047029248 83207 1066 -13785 -187306
832428059065241472 83265 1130 -13738 -187363
832428059083453824 83479 1214 -13667 -187295
832428059101666048 83679 1269 -13601 -187306
832428059119878400 83851 1457 -13510 -187362
832428059138090752 84175 1580 -13411 -187284
832428059156302976 84678 1818 -13209 -187339
832428059174515328 85093 2050 -13066 -187307
832428059192727552 85439 2244 -12919 -187323
832428059210939904 85615 2347 -12814 -187278
832428059229152128 85393 2258 -12966 -187295
832428059247364480 84805 1956 -13170 -187358
832428059265576704 84225 1626 -13395 -187326
832428059283789056 83544 1303 -13580 -187344
832428059302001408 82884 860 -13835 -187364
832428059320213632 82123 516 -14167 -187337
832428059338425984 81510 179 -14395 -187402
832428059356638208 81225 8 -14516 -187358
832428059374850560 81041 -29 -14547 -187333
832428059393062814 80979 -174 -14640 -187347
832428059411276800 81195 -35 -14485 -187296
832428059429490816 81407 163 -14415 -187296
832428059447704832 81580 324 -14307 -187377
832428059465918848 82168 554 -14073 -187329
832428059484132864 82620 797 -13964 -187329
832428059502346880 82902 951 -13875 -187329
832428059520560896 83136 1081 -13698 -187290
832428059538774912 83261 1140 -13677 -187324
832428059556988928 83472 1195 -13650 -187227
832428059575202944 83545 1259 -13593 -187259
832428059593416960 83699 1370 -13557 -187270
832428059611630976 83807 1492 -13441 -187268
832428059629844992 84005 1589 -13436 -187326
832428059648059008 84234 1634 -13292 -187356
832428059666273024 84728 1846 -13138 -187285
832428059684487040 85156 2157 -13033 -187320
832428059702701056 85565 2368 -12842 -187303
832428059720915072 85549 2410 -12840 -187276
832428059739129088 85316 2278 -12868 -187270
832428059757343104 84818 1964 -13169 -187298
832428059775557120 84052 1604 -13400 -187323
832428059793771136 83184 1129 -13739 -187353
832428059811985152 82395 692 -14002 -187281
832428059830199168 81633 250 -14313 -187321
832428059848413184 81202 66 -14463 -187274
832428059866627200 80976 -82 -14520 -187290
832428059884841216 80969 -79 -14583 -187293
832428059903055232 81031 -83 -14531 -187315
832428059921269248 81365 124 -14401 -187272
832428059939483264 81738 330 -14276 -187238
832428059957697280 82185 502 -14080 -187260
832428059975911296 82560 735 -13939 -187263
832428059994125312 82832 919 -13827 -187311
832428060012339328 83105 1103 -13751 -187277
832428060030553318 83200 1133 -13758 -187255
832428060048767232 83276 1162 -13690 -187319
832428060066981120 83354 1188 -13684 -187305
832428060085194880 83510 1256 -13609 -187321
832428060103408768 83684 1336 -13557 -187317
832428060121622656 83914 1460 -13475 -187327
832428060139836416 84285 1661 -13371 -187295
832428060158050304 84653 1889 -13218 -187320
832428060176264192 85009 2043 -13092 -187301
832428060194477952 85480 2284 -12920 -187271
832428060212691840 85547 2316 -12870 -187300
832428060230905728 85221 2214 -12917 -187336
832428060249119488 84838 1986 -13074 -187290
832428060267333376 84223 1640 -13383 -187326
832428060285547136 83568 1252 -13565 -187305
832428060303761024 82781 943 -13857 -187327
832428060321974912 82138 480 -14117 -187335
832428060340188672 81552 224 -14366 -187312
832428060358402560 81162 31 -14495 -187302
832428060376616448 80968 -106 -14572 -187312
832428060394830208 80948 -88 -14543 -187313
832428060413044096 80985 -32 -14563 -187362
832428060431257984 81327 87 -14460 -187316
832428060449471744 81803 373 -14237 -187277
832428060467685632 82252 566 -14072 -187273
832428060485899520 82582 782 -13966 -187319
832428060504113280 83001 997 -13824 -187266
832428060522327168 83183 1075 -13798 -187299
832428060540541056 83331 1208 -13735 -187341
832428060558754816 83466 1264 -13633 -187337
832428060576968704 83444 1199 -13674 -187338
832428060595182592 83564 1293 -13653 -187303
832428060613396352 83671 1400 -13570 -187293
832428060631610240 84043 1493 -13429 -187323
832428060649824000 84350 1757 -13266 -187319
832428060668037888 84751 1977 -13149 -187324
832428060686251776 85292 2216 -13025 -187322
832428060704465522 85615 2345 -12868 -187326
832428060722678784 85590 2394 -12835 -187322
832428060740892032 85291 2208 -12981 -187313
832428060759105280 84709 1964 -13182 -187313
832428060777318656 83979 1490 -13474 -187253
832428060795531904 83131 1139 -13682 -187277
832428060813745152 82296 671 -14033 -187284
832428060831958400 81637 304 -14274 -187272
832428060850171648 81167 0 -14421 -187295
832428060868385024 80953 -84 -14569 -187284
832428060886598272 80966 -81 -14571 -187310
832428060904811520 81074 -31 -14533 -187301
832428060923024768 81462 141 -14371 -187330
832428060941238016 81804 358 -14259 -187344
832428060959451392 82147 538 -14160 -187313
832428060977664640 82473 728 -14030 -187310
832428060995877888 82763 904 -13886 -187327
832428061014091136 82931 973 -13848 -187276
832428061032304384 83150 1093 -13735 -187290
832428061050517760 83326 1152 -13688 -187276
832428061068731008 83435 1217 -13633 -187281
832428061086944256 83520 1232 -13646 -187231
832428061105157504 83688 1352 -13539 -187362
832428061123370752 84077 1595 -13453 -187291
832428061141584128 84393 1738 -13340 -187284
832428061159797376 84707 1884 -13183 -187283
832428061178010624 85045 2083 -13044 -187320
832428061196223872 85405 2331 -12866 -187302
832428061214437120 85489 2316 -12876 -187298
832428061232650496 85295 2239 -12961 -187300
832428061250863744 84893 2035 -13049 -187304
832428061269076992 84306 1724 -13279 -187235
832428061287290240 83625 1307 -13557 -187306
832428061305503488 82875 873 -13862 -187308
832428061323716736 82160 570 -14130 -187326
832428061341930084 81582 207 -14312 -187341
832428061360142848 81161 -16 -14454 -187328
832428061378355584 80912 -111 -14591 -187333
832428061396568320 80859 -148 -14589 -187303
832428061414780928 81025 -33 -14530 -187272
832428061432993664 81470 177 -14384 -187222
832428061451206400 81821 367 -14243 -187346
832428061469419136 82330 644 -14063 -187310
832428061487631872 82721 854 -13861 -187301
832428061505844480 83052 1000 -13752 -187296
832428061524057216 83387 1157 -13637 -187276
832428061542269952 83444 1231 -13597 -187323
832428061560482688 83409 1219 -13597 -187270
832428061578695424 83356 1242 -13603 -187286
832428061596908160 83467 1280 -13616 -187286
832428061615120768 83712 1416 -13539 -187321
832428061633333504 84086 1540 -13399 -187323
832428061651546240 84439 1715 -13311 -187311
832428061669758976 84908 1970 -13122 -187267
832428061687971712 85324 2156 -13006 -187347
832428061706184320 85620 2334 -12842 -187354
832428061724397056 85539 2291 -12894 -187322
832428061742609792 85205 2169 -12976 -187324
832428061760822528 84522 1822 -13292 -187339
832428061779035264 83762 1437 -13502 -187350
832428061797248000 82919 994 -13865 -187340
832428061815460608 82222 536 -14115 -187334
832428061833673344 81598 266 -14320 -187313
832428061851886080 81175 17 -14502 -187333
832428061870098816 80967 -106 -14591 -187254
832428061888311552 81017 -91 -14527 -187268
832428061906524160 81161 39 -14545 -187277
832428061924736896 81399 150 -14439 -187369
832428061942949632 81798 325 -14338 -187323
832428061961162368 82134 529 -14168 -187353
832428061979375104 82452 713 -14005 -187336
832428061997587712 82633 826 -13956 -187322
832428062015800448 83032 983 -13844 -187369
832428062034013184 83227 1097 -13766 -187334
832428062052225852 83305 1146 -13680 -187321
832428062070438528 83336 1177 -13621 -187355
832428062088651264 83465 1203 -13627 -187334
832428062106864000 83771 1408 -13508 -187302
832428062125076864 84066 1552 -13432 -187311
832428062143289600 84337 1749 -13303 -187321
832428062161502336 84605 1865 -13223 -187336
832428062179715072 84966 2064 -13110 -187380
832428062197927808 85393 2232 -12957 -187359
832428062216140672 85540 2344 -12920 -187307
832428062234353408 85383 2240 -12967 -187306
832428062252566144 84887 1950 -13162 -187377
832428062270778880 84177 1640 -13406 -187318
832428062288991616 83402 1213 -13731 -187334
832428062307204480 82695 840 -13916 -187323
832428062325417216 82053 460 -14209 -187304
832428062343629952 81423 165 -14452 -187387
832428062361842688 81051 -75 -14554 -187332
832428062380055424 80814 -132 -14662 -187256
832428062398268288 80898 -64 -14583 -187291
832428062416481024 81160 68 -14494 -187286
832428062434693760 81519 218 -14361 -187328
832428062452906496 82009 397 -14244 -187263
832428062471119232 82355 629 -14098 -187300
832428062489331968 82745 867 -13878 -187273
832428062507544832 83051 1025 -13834 -187324
832428062525757568 83242 1080 -13695 -187335
832428062543970304 83325 1178 -13715 -187332
832428062562183040 83377 1207 -13712 -187249
832428062580395776 83393 1188 -13680 -187269
832428062598608640 83569 1266 -13581 -187244
832428062616821376 83828 1417 -13506 -187247
832428062635034112 84126 1644 -13400 -187306
832428062653246848 84501 1789 -13210 -187281
832428062671459584 84933 2014 -13057 -187289
832428062689672448 85458 2255 -12932 -187290
832428062707885248 85648 2376 -12827 -187295
832428062726097536 85587 2385 -12858 -187320
832428062744309760 85081 2099 -13040 -187357
832428062762521856 84456 1775 -13261 -187321
832428062780734080 83609 1362 -13596 -187329
832428062798946176 82882 913 -13885 -187376
832428062817158400 82179 523 -14179 -187370
832428062835370496 81702 344 -14344 -187288
832428062853582720 81159 26 -14507 -187368
832428062871794816 80988 -91 -14534 -187301
832428062890007040 81007 -39 -14520 -187318
832428062908219264 81238 58 -14469 -187302
832428062926431360 81449 246 -14330 -187344
832428062944643584 81785 429 -14239 -187293
832428062962855680 82136 547 -14130 -187268
832428062981067904 82326 655 -14040 -187347
832428062999280000 82714 887 -13913 -187334
832428063017492224 83036 955 -13837 -187302
832428063035704448 83228 1070 -13751 -187277
832428063053916544 83330 1115 -13721 -187317
832428063072128768 83415 1171 -13698 -187332
832428063090340864 83593 1311 -13596 -187283
832428063108553088 83739 1434 -13540 -187343
832428063126765184 84005 1494 -13435 -187316
832428063144977408 84268 1642 -13346 -187340
832428063163189504 84599 1876 -13206 -187340
832428063181401728 85002 2005 -13038 -187327
832428063199613952 85444 2269 -12892 -187363
832428063217826048 85526 2274 -12871 -187354
832428063236038272 85363 2310 -12903 -187335
832428063254250368 84862 2028 -13103 -187294
832428063272462592 84080 1580 -13419 -187377
832428063290674688 83464 1264 -13605 -187336
832428063308886912 82638 827 -13905 -187299
832428063327099008 81883 437 -14201 -187294
832428063345311232 81325 143 -14407 -187278
832428063363523280 80898 -123 -14605 -187327
832428063381734144 80756 -171 -14608 -187332
832428063399944960 80936 -108 -14497 -187316
832428063418155776 81129 80 -14434 -187349
832428063436366464 81609 290 -14338 -187321
832428063454577280 81983 452 -14178 -187353
832428063472788096 82369 666 -14092 -187310
832428063490998912 82850 873 -13882 -187312
832428063509209728 83103 1030 -13827 -187353
832428063527420416 83204 1152 -13729 -187347
832428063545631232 83257 1158 -13697 -187342
832428063563842048 83251 1140 -13725 -187335
832428063582052864 83388 1173 -13709 -187361
832428063600263680 83580 1249 -13719 -187313
832428063618474496 83773 1423 -13516 -187307
832428063636685184 84149 1582 -13407 -187302
832428063654896000 84569 1805 -13233 -187240
832428063673106816 85071 2058 -13055 -187319
832428063691317632 85484 2337 -12904 -187310
832428063709528448 85712 2408 -12807 -187327
832428063727739136 85503 2259 -12949 -187362
832428063745949952 85040 2051 -13031 -187366
832428063764160768 84382 1691 -13328 -187344
832428063782371584 83654 1306 -13595 -187342
832428063800582400 82898 889 -13902 -187322
832428063818793088 82167 528 -14162 -187359
832428063837003904 81590 231 -14333 -187325
832428063855214720 81116 -34 -14491 -187342
832428063873425536 81024 -129 -14481 -187330
832428063891636352 80939 -128 -14540 -187329
832428063909847168 81149 -37 -14555 -187336
832428063928057856 81381 129 -14467 -187374
832428063946268672 81742 339 -14243 -187344
832428063964479488 82088 502 -14177 -187343
832428063982690304 82459 724 -14003 -187364
832428064000901120 82834 895 -13848 -187335
832428064019111808 83098 1031 -13795 -187339
832428064037322574 83256 1158 -13717 -187322
832428064055535104 83419 1116 -13719 -187347
832428064073747584 83542 1234 -13640 -187290
832428064091960064 83579 1287 -13639 -187355
832428064110172544 83718 1345 -13585 -187340
832428064128385024 83956 1475 -13468 -187347
832428064146597376 84238 1696 -13360 -187313
832428064164809856 84604 1844 -13213 -187333
832428064183022336 85119 2084 -13040 -187359
832428064201234816 85560 2315 -12898 -187356
832428064219447296 85534 2281 -12944 -187341
832428064237659776 85310 2169 -12914 -187363
832428064255872256 84871 1947 -13116 -187307
832428064274084608 84215 1600 -13343 -187330
832428064292297088 83389 1218 -13670 -187320
832428064310509568 82579 772 -13997 -187340
832428064328722048 81793 367 -14279 -187296
832428064346934528 81116 -35 -14531 -187358
832428064365147008 80848 -196 -14635 -187351
832428064383359488 80775 -170 -14660 -187360
832428064401571968 80856 -75 -14586 -187305
832428064419784448 81290 86 -14447 -187284
832428064437996800 81631 302 -14314 -187296
832428064456209280 82093 466 -14196 -187306
832428064474421760 82512 719 -14030 -187298
832428064492634240 82828 951 -13857 -187291
832428064510846720 83027 998 -13834 -187315
832428064529059200 83090 1077 -13860 -187377
832428064547271680 83204 1076 -13777 -187329
832428064565484032 83282 1053 -13785 -187356
832428064583696512 83357 1132 -13690 -187375
832428064601908992 83598 1253 -13601 -187376
832428064620121472 83942 1480 -13523 -187322
832428064638333952 84246 1673 -13335 -187339
832428064656546432 84704 1918 -13196 -187346
832428064674758912 85101 2119 -13046 -187315
832428064692971278 85492 2321 -12905 -187347
832428064711182848 85620 2362 -12891 -187300
832428064729394432 85360 2274 -12903 -187352
832428064747606144 84885 1974 -13122 -187345
832428064765817728 84272 1657 -13345 -187337
832428064784029312 83533 1281 -13599 -187357
832428064802240896 82794 844 -13906 -187309
832428064820452608 82081 497 -14179 -187362
832428064838664192 81496 222 -14371 -187326
832428064856875776 81196 54 -14506 -187351
832428064875087360 80982 -103 -14581 -187360
832428064893299072 81020 -81 -14523 -187324
832428064911510656 81070 -65 -14500 -187335
832428064929722240 81336 132 -14439 -187328
832428064947933824 81753 251 -14408 -187388
832428064966145536 82060 474 -14195 -187336
832428064984357120 82585 703 -14011 -187312
832428065002568704 82887 858 -13906 -187352
832428065020780288 83125 1033 -13761 -187327
832428065038992000 83282 1127 -13654 -187285
832428065057203584 83389 1173 -13680 -187383
832428065075415168 83452 1279 -13630 -187367
832428065093626752 83549 1307 -13579 -187326
832428065111838464 83728 1402 -13530 -187359
832428065130050048 83926 1493 -13496 -187330
832428065148261632 84280 1672 -13347 -187337
832428065166473216 84754 1917 -13176 -187325
832428065184684928 85244 2178 -12992 -187298
832428065202896512 85631 2354 -12915 -187296
832428065221108096 85600 2396 -12883 -187344
832428065239319680 85350 2199 -12954 -187299
832428065257531392 84778 1974 -13101 -187356
832428065275742976 84045 1510 -13492 -187407
832428065293954560 83237 1103 -13800 -187383
832428065312166144 82319 649 -14093 -187401
832428065330377858 81541 236 -14391 -187413
832428065348591488 81124 -61 -14538 -187406
832428065366805120 80942 -120 -14567 -187356
832428065385018624 80902 -151 -14606 -187343
832428065403232256 81047 -42 -14562 -187323
832428065421445760 81316 81 -14500 -187338
832428065439659392 81756 249 -14328 -187341
832428065457872896 82163 521 -14127 -187291
832428065476086528 82521 685 -13964 -187273
832428065494300032 82767 849 -13910 -187323
832428065512513664 83002 959 -13866 -187291
832428065530727168 83022 1065 -13776 -187304
832428065548940800 83088 1096 -13738 -187380
832428065567154304 83314 1188 -13691 -187340
832428065585367936 83408 1243 -13672 -187320
832428065603581568 83643 1314 -13554 -187325
832428065621795072 83899 1470 -13465 -187325
832428065640008704 84358 1663 -13338 -187275
832428065658222208 84673 1916 -13173 -187332
832428065676435840 85087 2150 -12981 -187295
832428065694649344 85488 2303 -12873 -187284
832428065712862976 85457 2307 -12893 -187318
832428065731076480 85326 2220 -12907 -187292
832428065749290112 84914 2023 -13119 -187317
832428065767503616 84294 1643 -13313 -187336
832428065785717248 83609 1262 -13567 -187288
832428065803930752 82781 870 -13853 -187324
832428065822144384 82076 496 -14133 -187339
832428065840358016 81627 311 -14293 -187303
832428065858571520 81180 6 -14463 -187346
832428065876785152 80917 -143 -14601 -187387
832428065894998656 80906 -168 -14548 -187377
832428065913212288 80948 -119 -14554 -187381
832428065931425792 81374 90 -14432 -187377
832428065949639424 81836 362 -14287 -187361
832428065967852928 82282 648 -14079 -187304
832428065986066560 82685 785 -13935 -187347
832428066004280064 83010 958 -13820 -187352
832428066022493696 83272 1147 -13705 -187324
832428066040707198 83437 1235 -13629 -187340
832428066058920576 83407 1215 -13663 -187346
832428066077133952 83447 1245 -13650 -187381
832428066095347328 83541 1268 -13579 -187354
832428066113560704 83687 1314 -13579 -187403
832428066131774208 83962 1527 -13466 -187401
832428066149987584 84357 1758 -13300 -187389
832428066168200960 84759 1929 -13179 -187401
832428066186414336 85181 2177 -13032 -187383
832428066204627712 85570 2367 -12882 -187339
832428066222841088 85522 2393 -12837 -187311
832428066241054592 85269 2201 -13010 -187342
832428066259267968 84698 1860 -13221 -187376
832428066277481344 83904 1479 -13517 -187327
832428066295694720 83073 1000 -13734 -187346
832428066313908096 82234 547 -14101 -187344
832428066332121472 81576 205 -14376 -187363
832428066350334976 81157 60 -14519 -187301
832428066368548352 80910 -129 -14680 -187357
832428066386761728 80944 -152 -14657 -187268
832428066404975104 81038 -48 -14571 -187329
832428066423188480 81437 162 -14438 -187356
832428066441401856 81763 378 -14290 -187327
832428066459615360 82157 534 -14115 -187320
832428066477828736 82522 718 -13992 -187299
832428066496042112 82767 842 -13926 -187325
832428066514255488 82906 952 -13833 -187381
832428066532468864 83179 1048 -13739 -187323
832428066550682240 83293 1119 -13750 -187319
832428066568895744 83431 1213 -13691 -187306
832428066587109120 83499 1192 -13694 -187384
832428066605322496 83731 1274 -13579 -187294
832428066623535872 84033 1506 -13469 -187273
832428066641749248 84351 1714 -13371 -187346
832428066659962624 84692 1894 -13246 -187355
832428066678176128 85024 2076 -13060 -187309
832428066696389482 85346 2262 -13014 -187350
832428066714603136 85495 2298 -12934 -187357
832428066732816768 85343 2211 -12962 -187395
832428066751030400 84878 2024 -13128 -187362
832428066769244032 84251 1643 -13385 -187366
832428066787457792 83574 1302 -13627 -187336
832428066805671424 82772 872 -13871 -187324
832428066823885056 82118 525 -14139 -187402
832428066842098688 81642 206 -14338 -187325
832428066860312320 81112 -31 -14589 -187370
832428066878525952 80880 -142 -14667 -187388
832428066896739584 80847 -150 -14617 -187312
832428066914953344 81037 -41 -14550 -187353
832428066933166976 81499 124 -14383 -187308
832428066951380608 81925 353 -14210 -187319
832428066969594240 82344 592 -14118 -187298
832428066987807872 82703 807 -13911 -187308
832428067006021504 83037 950 -13854 -187308
832428067024235264 83288 1191 -13698 -187289
832428067042448896 83505 1242 -13687 -187267
832428067060662528 83474 1269 -13698 -187333
832428067078876160 83405 1234 -13630 -187325
832428067097089792 83518 1252 -13638 -187319
832428067115303424 83746 1379 -13557 -187301
832428067133517056 84097 1501 -13415 -187306
832428067151730816 84480 1714 -13289 -187301
832428067169944448 84920 1951 -13113 -187305
832428067188158080 85353 2191 -12988 -187353
832428067206371712 85742 2389 -12843 -187378
832428067224585344 85667 2350 -12824 -187393
832428067242798976 85310 2135 -12994 -187352
832428067261012608 84598 1834 -13263 -187362
832428067279226368 83789 1405 -13473 -187364
832428067297440000 82976 916 -13840 -187304
832428067315653632 82241 580 -14089 -187367
832428067333867264 81620 234 -14292 -187377
832428067352080920 81275 20 -14454 -187317
832428067370293248 81008 -68 -14588 -187330
832428067388505600 80914 -112 -14628 -187291
832428067406718080 81143 -45 -14499 -187296
832428067424930432 81446 121 -14410 -187351
832428067443142784 81733 316 -14337 -187368
832428067461355264 82131 525 -14233 -187342
832428067479567616 82363 703 -14089 -187380
832428067497780096 82630 808 -13981 -187315
832428067515992448 82947 990 -13827 -187330
832428067534204800 83166 1032 -13739 -187355
832428067552417280 83341 1179 -13749 -187345
832428067570629632 83455 1250 -13676 -187328
832428067588841984 83539 1258 -13663 -187358
832428067607054464 83795 1410 -13529 -187290
832428067625266816 84097 1539 -13473 -187311
832428067643479296 84416 1713 -13339 -187347
832428067661691648 84652 1847 -13246 -187395
832428067679904000 84989 1973 -13087 -187362
832428067698116480 85402 2256 -12907 -187376
832428067716328832 85518 2269 -12940 -187364
832428067734541184 85384 2245 -12910 -187341
832428067752753664 84894 2056 -13076 -187335
832428067770966016 84211 1642 -13345 -187325
832428067789178496 83520 1284 -13618 -187263
832428067807390848 82725 850 -13877 -187301
832428067825603200 82002 488 -14092 -187354
832428067843815680 81428 213 -14441 -187336
832428067862028032 81036 -55 -14553 -187312
832428067880240384 80832 -202 -14580 -187342
832428067898452864 80868 -199 -14583 -187343
832428067916665216 81091 -22 -14555 -187336
832428067934877696 81473 159 -14407 -187318
832428067953090048 81960 503 -14206 -187307
832428067971302400 82381 616 -14109 -187321
832428067989514880 82695 777 -13947 -187333
832428068007727232 83022 990 -13843 -187347
832428068025939716 83189 1099 -13757 -187368
832428068044152832 83238 1139 -13739 -187374
832428068062365952 83309 1161 -13730 -187371
832428068080579072 83254 1123 -13733 -187337
832428068098792320 83420 1199 -13649 -187375
832428068117005440 83745 1408 -13492 -187345
832428068135218560 84147 1626 -13371 -187325
832428068153431680 84511 1826 -13333 -187332
832428068171644800 84871 2010 -13198 -187368
832428068189857920 85344 2246 -12972 -187317
832428068208071168 85638 2423 -12876 -187350
832428068226284288 85616 2345 -12890 -187342
832428068244497408 85086 2096 -13080 -187406
832428068262710528 84382 1745 -13289 -187381
832428068280923648 83586 1273 -13604 -187347
832428068299136768 82884 876 -13806 -187404
832428068317350016 82143 546 -14101 -187396
832428068335563136 81543 222 -14332 -187411
832428068353776256 81177 17 -14444 -187367
832428068371989376 80965 -91 -14526 -187326
832428068390202496 81023 -67 -14544 -187349
832428068408415744 81206 -45 -14482 -187347
832428068426628864 81477 151 -14343 -187355
832428068444841984 81783 295 -14316 -187410
832428068463055104 82060 551 -14137 -187311
832428068481268224 82369 697 -14038 -187351
832428068499481344 82806 874 -13879 -187329
832428068517694592 83064 1037 -13820 -187318
832428068535907712 83149 1064 -13778 -187326
832428068554120832 83309 1165 -13691 -187284
832428068572333952 83342 1205 -13645 -187339
832428068590547072 83589 1297 -13589 -187315
832428068608760192 83737 1446 -13538 -187368
832428068626973440 83965 1556 -13452 -187340
832428068645186560 84255 1675 -13328 -187351
832428068663399680 84597 1840 -13239 -187383
832428068681612800 85025 2121 -13041 -187357
832428068699825986 85441 2309 -12872 -187330
832428068718039168 85530 2316 -12886 -187413
832428068736252288 85319 2207 -13022 -187388
832428068754465408 84861 1904 -13152 -187369
832428068772678656 84116 1563 -13385 -187402
832428068790891776 83429 1179 -13678 -187394
832428068809104896 82609 764 -13968 -187323
832428068827318016 81817 378 -14221 -187346
832428068845531136 81305 54 -14396 -187312
832428068863744256 80827 -115 -14588 -187342
832428068881957504 80728 -214 -14666 -187346
832428068900170624 80873 -132 -14634 -187335
832428068918383744 81224 52 -14442 -187278
832428068936596864 81656 280 -14387 -187357
832428068954809984 82026 446 -14244 -187374
832428068973023104 82476 594 -14063 -187407
832428068991236352 82785 905 -13913 -187343
832428069009449472 83075 1024 -13802 -187311
832428069027662592 83214 1088 -13695 -187336
832428069045875712 83248 1082 -13809 -187346
832428069064088832 83280 1095 -13747 -187289
832428069082302080 83331 1163 -13700 -187311
832428069100515200 83555 1268 -13563 -187288
832428069118728320 83822 1416 -13528 -187354
832428069136941440 84189 1605 -13385 -187354
832428069155154560 84598 1857 -13218 -187350
832428069173367680 85109 2071 -13092 -187366
832428069191580928 85420 2280 -12908 -187361
832428069209794048 85641 2414 -12852 -187378
832428069228007168 85511 2310 -12908 -187343
832428069246220288 85086 2062 -13005 -187362
832428069264433408 84334 1676 -13312 -187322
832428069282646528 83578 1300 -13654 -187352
832428069300859776 82814 871 -13892 -187372
832428069319072896 82122 513 -14165 -187360
832428069337285972 81576 174 -14382 -187313
832428069355499904 81240 14 -14493 -187328
832428069373713792 80998 -126 -14588 -187326
832428069391927808 80966 -120 -14617 -187316
832428069410141696 81093 -30 -14518 -187318
832428069428355584 81358 90 -14407 -187368
832428069446569472 81695 324 -14316 -187304
832428069464783488 82056 456 -14185 -187380
832428069482997376 82469 729 -14009 -187306
832428069501211264 82857 916 -13896 -187326
832428069519425280 83100 1016 -13832 -187378
832428069537639168 83242 1093 -13777 -187379
832428069555853056 83370 1181 -13721 -187321
832428069574066944 83462 1283 -13632 -187312
832428069592280960 83661 1310 -13613 -187286
832428069610494848 83774 1404 -13493 -187336
832428069628708736 84029 1572 -13407 -187316
832428069646922752 84179 1635 -13329 -187381
832428069665136640 84686 1918 -13147 -187292
832428069683350528 85114 2107 -12997 -187371
832428069701564416 85521 2284 -12878 -187355
832428069719778432 85526 2290 -12869 -187340
832428069737992320 85278 2166 -12955 -187374
832428069756206208 84747 1973 -13082 -187374
832428069774420224 84075 1603 -13375 -187361
832428069792634112 83270 1147 -13734 -187341
832428069810848000 82437 728 -14070 -187366
832428069829061888 81678 326 -14289 -187383
832428069847275904 81238 77 -14487 -187347
832428069865489792 80823 -184 -14603 -187336
832428069883703680 80753 -190 -14642 -187368
832428069901917696 80897 -103 -14662 -187389
832428069920131584 81209 14 -14502 -187373
832428069938345472 81587 249 -14308 -187313
832428069956559488 82025 461 -14159 -187351
832428069974773376 82478 729 -14020 -187378
832428069992987264 82814 928 -13906 -187320
832428070011201152 83061 1047 -13880 -187373
832428070029415168 83168 1072 -13779 -187369
832428070047629044 83102 1100 -13766 -187387
832428070065843072 83268 1100 -13729 -187378
832428070084057088 83331 1157 -13699 -187367
832428070102271104 83552 1294 -13628 -187347
832428070120484992 83841 1444 -13524 -187346
832428070138699008 84211 1611 -13414 -187350
832428070156913024 84605 1855 -13268 -187362
832428070175127040 85058 2086 -13084 -187316
832428070193341056 85464 2311 -12909 -187367
832428070211554944 85555 2341 -12877 -187377
832428070229768960 85330 2277 -12914 -187363
832428070247982976 84937 2024 -13119 -187352
832428070266196992 84271 1600 -13415 -187350
832428070284411008 83565 1277 -13616 -187367
832428070302624896 82825 865 -13869 -187359
832428070320838912 82159 564 -14079 -187286
832428070339052928 81550 167 -14361 -187369
832428070357266944 81242 62 -14449 -187303
832428070375480960 81044 -85 -14554 -187336
832428070393694848 80947 -66 -14570 -187360
832428070411908864 81094 -14 -14514 -187361
832428070430122880 81365 151 -14417 -187383
832428070448336896 81720 311 -14295 -187352
832428070466550912 82134 558 -14158 -187358
832428070484764800 82613 721 -13985 -187337
832428070502978816 82942 923 -13835 -187291
832428070521192832 83175 1052 -13746 -187341
832428070539406848 83307 1155 -13650 -187334
832428070557620864 83384 1228 -13688 -187377
832428070575834752 83444 1239 -13628 -187342
832428070594048768 83490 1275 -13590 -187349
832428070612262784 83645 1256 -13580 -187392
832428070630476800 83930 1473 -13500 -187308
832428070648690816 84286 1721 -13370 -187338
832428070666904704 84785 1885 -13217 -187324
832428070685118720 85246 2180 -13011 -187287
832428070703332690 85552 2360 -12948 -187362
832428070721546624 85559 2306 -12929 -187322
832428070739760512 85366 2190 -13025 -187350
832428070757974400 84754 1912 -13229 -187346
832428070776188288 83995 1554 -13451 -187340
832428070794402304 83112 1010 -13755 -187383
832428070812616192 82339 551 -14087 -187358
832428070830830080 81567 225 -14320 -187337
832428070849043968 81152 -15 -14518 -187338
832428070867257856 80883 -165 -14631 -187329
832428070885471744 80861 -145 -14612 -187353
832428070903685632 80954 -94 -14543 -187396
832428070921899520 81327 103 -14435 -187358
832428070940113536 81741 308 -14312 -187383
832428070958327424 82129 549 -14139 -187363
832428070976541312 82474 699 -14000 -187417
832428070994755200 82746 868 -13937 -187403
832428071012969088 82985 990 -13804 -187339
832428071031182976 83086 1021 -13749 -187356
832428071049396864 83235 1086 -13729 -187341
832428071067610880 83306 1146 -13693 -187312
832428071085824768 83487 1240 -13619 -187337
832428071104038656 83650 1305 -13580 -187343
832428071122252544 83945 1480 -13485 -187335
832428071140466432 84317 1663 -13311 -187323
832428071158680320 84630 1868 -13243 -187368
832428071176894208 85035 2082 -13051 -187296
832428071195108224 85404 2238 -12920 -187343
832428071213322112 85502 2295 -12896 -187325
832428071231536000 85355 2140 -12988 -187315
832428071249749888 84926 1974 -13184 -187287
832428071267963776 84274 1655 -13406 -187353
832428071286177664 83524 1225 -13702 -187333
832428071304391552 82776 804 -13963 -187384
832428071322605440 82076 500 -14188 -187316
832428071340819456 81555 165 -14370 -187366
832428071359033284 81188 41 -14561 -187384
832428071377247360 80963 -114 -14575 -187294
832428071395461376 80890 -122 -14613 -187330
832428071413675264 81032 -80 -14524 -187317
832428071431889280 81383 171 -14414 -187296
832428071450103168 81808 356 -14261 -187347
832428071468317184 82233 597 -14060 -187312
832428071486531200 82644 770 -13901 -187371
832428071504745088 83021 946 -13830 -187303
832428071522959104 83304 1068 -13725 -187304
832428071541173120 83424 1148 -13671 -187360
832428071559387008 83525 1217 -13635 -187361
832428071577601024 83475 1178 -13633 -187322
832428071595814912 83479 1204 -13674 -187392
832428071614028928 83610 1225 -13580 -187330
832428071632242944 83962 1482 -13461 -187320
832428071650456832 84363 1710 -13255 -187335
832428071668670848 84764 1872 -13205 -187285
832428071686884864 85262 2191 -12988 -187345
832428071705098752 85596 2357 -12836 -187351
832428071723312768 85640 2381 -12842 -187334
832428071741526656 85337 2180 -12919 -187354
832428071759740672 84647 1845 -13209 -187380
832428071777954688 83880 1477 -13516 -187357
832428071796168576 83009 1063 -13844 -187347
832428071814382592 82180 602 -14128 -187355
832428071832596480 81645 221 -14356 -187349
832428071850810496 81249 69 -14447 -187325
832428071869024512 80984 -72 -14544 -187296
832428071887238400 80869 -199 -14593 -187306
832428071905452416 80996 -110 -14550 -187266
832428071923666432 81451 193 -14358 -187293
832428071941880320 81829 372 -14222 -187309
832428071960094336 82177 538 -14076 -187285
832428071978308224 82486 746 -13997 -187327
832428071996522240 82748 906 -13914 -187322
832428072014736256 83014 933 -13817 -187325
832428072032950068 83173 1105 -13733 -187353
832428072051163392 83378 1182 -13640 -187342
832428072069376768 83473 1196 -13665 -187313
832428072087590144 83556 1269 -13661 -187330
832428072105803520 83681 1241 -13628 -187407
832428072124016896 84012 1525 -13470 -187347
832428072142230400 84359 1648 -13341 -187351
832428072160443776 84644 1859 -13229 -187316
832428072178657152 85051 2045 -13090 -187312
832428072196870528 85342 2188 -12912 -187356
832428072215083904 85434 2212 -12925 -187351
832428072233297280 85351 2256 -12854 -187310
832428072251510656 84895 2016 -13115 -187305
832428072269724032 84231 1653 -13399 -187301
832428072287937408 83516 1327 -13642 -187334
832428072306150912 82694 791 -14012 -187327
832428072324364288 82023 478 -14218 -187385
832428072342577664 81434 195 -14425 -187344
832428072360791040 81021 1 -14532 -187344
832428072379004416 80794 -140 -14646 -187323
832428072397217792 80776 -163 -14622 -187353
832428072415431168 81035 -61 -14542 -187311
832428072433644544 81482 168 -14433 -187336
832428072451857920 81891 382 -14268 -187385
832428072470071296 82319 663 -14110 -187342
832428072488284800 82686 771 -13989 -187311
832428072506498176 83057 962 -13786 -187393
832428072524711552 83288 1088 -13740 -187339
832428072542924928 83384 1199 -13738 -187336
832428072561138304 83494 1192 -13679 -187256
832428072579351680 83372 1223 -13689 -187266
832428072597565056 83484 1259 -13662 -187322
832428072615778432 83687 1276 -13597 -187362
832428072633991808 84085 1569 -13401 -187299
832428072652205312 84391 1704 -13305 -187332
832428072670418688 84817 1962 -13152 -187343
832428072688632064 85334 2146 -13001 -187358
832428072706845488 85623 2405 -12873 -187329
832428072725058432 85603 2339 -12916 -187354
832428072743271424 85265 2154 -13012 -187370
832428072761484416 84558 1754 -13283 -187323
832428072779697280 83721 1349 -13557 -187370
832428072797910272 82862 909 -13842 -187344
832428072816123264 82149 496 -14136 -187322
832428072834336256 81607 235 -14310 -187303
832428072852549248 81132 -28 -14558 -187369
832428072870762240 80848 -190 -14646 -187380
832428072888975104 80882 -157 -14652 -187357
832428072907188096 80996 -33 -14552 -187389
832428072925401088 81395 155 -14404 -187328
832428072943614080 81777 335 -14259 -187343
832428072961827072 82095 505 -14164 -187364
832428072980039936 82443 702 -14015 -187312
832428072998252928 82759 838 -13972 -187370
832428073016465920 82935 964 -13816 -187379
832428073034678912 83174 1053 -13777 -187330
832428073052891904 83313 1157 -13717 -187305
832428073071104768 83402 1202 -13740 -187330
832428073089317760 83491 1226 -13671 -187316
832428073107530752 83759 1359 -13624 -187305
832428073125743744 84125 1563 -13452 -187300
832428073143956736 84331 1713 -13324 -187367
832428073162169728 84686 1918 -13141 -187338
832428073180382592 84992 2073 -13021 -187284
832428073198595584 85519 2324 -12873 -187290
832428073216808576 85604 2365 -12852 -187367
832428073235021568 85383 2272 -12929 -187375
832428073253234560 84923 1958 -13104 -187387
832428073271447424 84174 1598 -13399 -187261
832428073289660416 83505 1300 -13643 -187324
832428073307873408 82712 810 -13989 -187335
832428073326086400 81971 433 -14247 -187339
832428073344299372 81414 206 -14423 -187315
832428073362512128 80951 -109 -14605 -187394
832428073380724864 80695 -224 -14676 -187340
832428073398937600 80830 -179 -14666 -187330
832428073417150336 81132 -43 -14516 -187336
832428073435363072 81562 185 -14315 -187319
832428073453575936 82023 444 -14164 -187339
832428073471788672 82394 635 -14016 -187335
832428073490001408 82787 862 -13952 -187324
832428073508214144 83098 1092 -13776 -187316
832428073526426880 83282 1204 -13681 -187274
832428073544639616 83321 1205 -13684 -187263
832428073562852352 83312 1165 -13692 -187313
832428073581065088 83272 1148 -13716 -187312
832428073599277952 83480 1226 -13632 -187352
832428073617490688 83826 1387 -13513 -187261
832428073635703424 84105 1550 -13448 -187326
832428073653916160 84488 1718 -13292 -187343
832428073672128896 84967 2031 -13103 -187337
832428073690341632 85451 2215 -12956 -187329
832428073708554368 85696 2383 -12852 -187294
832428073726767104 85535 2377 -12823 -187281
832428073744979840 85131 2138 -13033 -187327
832428073763192704 84488 1781 -13255 -187328
832428073781405440 83697 1311 -13580 -187378
832428073799618176 82908 925 -13858 -187342
832428073817830912 82188 560 -14086 -187321
832428073836043648 81629 273 -14308 -187291
832428073854256384 81235 98 -14496 -187296
832428073872469120 80914 -92 -14620 -187401
832428073890681856 81014 24 -14501 -187325
832428073908894720 81105 -5 -14487 -187374
832428073927107456 81422 159 -14347 -187347
832428073945320192 81836 395 -14245 -187311
832428073963532928 82139 561 -14150 -187351
832428073981745664 82585 743 -13989 -187263
832428073999958400 82870 905 -13857 -187309
832428074018171136 83102 1042 -13775 -187329
832428074036383872 83250 1171 -13709 -187302
832428074054596666 83370 1196 -13668 -187231
832428074072809600 83391 1191 -13695 -187316
832428074091022592 83555 1258 -13665 -187362
832428074109235584 83752 1420 -13579 -187340
832428074127448576 84006 1609 -13469 -187336
832428074145661440 84241 1700 -13364 -187329
832428074163874432 84545 1847 -13252 -187345
832428074182087424 85022 2069 -13041 -187324
832428074200300416 85423 2283 -12852 -187362
832428074218513408 85566 2368 -12825 -187305
832428074236726400 85389 2237 -12917 -187332
832428074254939392 84852 1969 -13137 -187325
832428074273152256 84256 1561 -13368 -187363
832428074291365248 83521 1158 -13667 -187278
832428074309578240 82670 780 -13936 -187333
832428074327791232 81885 405 -14253 -187359
832428074346004224 81282 70 -14442 -187321
832428074364217216 80846 -107 -14588 -187328
832428074382430080 80750 -178 -14636 -187288
832428074400643072 80969 -122 -14564 -187256
832428074418856064 81265 13 -14511 -187330
832428074437069056 81667 224 -14314 -187324
832428074455282048 82024 424 -14223 -187317
832428074473495040 82455 672 -14001 -187343
832428074491708032 82822 847 -13878 -187356
832428074509920896 82999 946 -13835 -187374
832428074528133888 83097 1032 -13752 -187374
832428074546346880 83260 1120 -13729 -187309
832428074564559872 83272 1069 -13727 -187332
832428074582772864 83388 1166 -13707 -187292
832428074600985856 83560 1306 -13585 -187295
832428074619198848 83811 1424 -13431 -187324
832428074637411712 84214 1624 -13298 -187329
832428074655624704 84529 1839 -13250 -187337
832428074673837696 84986 1990 -13081 -187355
832428074692050688 85507 2269 -12908 -187340
832428074710263692 85637 2376 -12869 -187330
832428074728477440 85411 2324 -12972 -187326
832428074746691200 84929 2064 -13125 -187383
832428074764904960 84260 1652 -13382 -187364
832428074783118592 83619 1300 -13610 -187356
832428074801332352 82848 932 -13874 -187413
832428074819546112 82121 507 -14143 -187346
832428074837759872 81544 221 -14369 -187329
832428074855973632 81143 -18 -14510 -187352
832428074874187264 81007 -50 -14519 -187305
832428074892401024 80966 -86 -14541 -187358
832428074910614784 81087 -56 -14524 -187346
832428074928828544 81418 144 -14406 -187337
832428074947042304 81703 318 -14258 -187309
832428074965256064 82096 515 -14137 -187395
832428074983469696 82599 775 -14007 -187354
832428075001683456 82919 962 -13883 -187311
832428075019897216 83088 1068 -13813 -187357
832428075038110976 83151 1094 -13726 -187340
832428075056324736 83289 1177 -13715 -187355
832428075074538368 83439 1220 -13694 -187371
832428075092752128 83544 1290 -13624 -187342
832428075110965888 83684 1390 -13559 -187290
832428075129179648 83913 1489 -13457 -187359
832428075147393408 84126 1615 -13408 -187351
832428075165607040 84668 1935 -13219 -187321
832428075183820800 85084 2155 -13076 -187371
832428075202034560 85425 2303 -12934 -187349
832428075220248320 85530 2367 -12888 -187308
832428075238462080 85390 2241 -12921 -187328
832428075256675840 84857 1984 -13101 -187309
832428075274889472 84153 1594 -13406 -187310
832428075293103232 83352 1141 -13685 -187340
832428075311316992 82434 691 -14065 -187388
832428075329530752 81724 302 -14352 -187361
832428075347744512 81110 1 -14525 -187282
832428075365958182 80895 -205 -14626 -187273
832428075384171264 80901 -192 -14580 -187335
832428075402384384 80952 -158 -14549 -187320
832428075420597504 81324 104 -14444 -187270
832428075438810752 81787 318 -14247 -187362
832428075457023872 82178 533 -14131 -187355
832428075475236992 82523 753 -13989 -187336
832428075493450112 82842 908 -13862 -187357
832428075511663232 83037 910 -13801 -187364
832428075529876352 83150 1030 -13710 -187352
832428075548089600 83260 1096 -13722 -187305
832428075566302720 83273 1156 -13697 -187327
832428075584515840 83431 1213 -13650 -187293
832428075602728960 83580 1286 -13575 -187327
832428075620942080 83871 1410 -13451 -187324
832428075639155200 84258 1581 -13375 -187306
832428075657368448 84626 1836 -13181 -187340
832428075675581568 85069 2077 -13058 -187299
832428075693794688 85410 2257 -12962 -187345
832428075712007808 85581 2342 -12851 -187261
832428075730220928 85325 2255 -12906 -187254
832428075748434048 84939 2043 -13121 -187337
832428075766647296 84303 1720 -13340 -187379
832428075784860416 83543 1341 -13591 -187361
832428075803073536 82807 876 -13929 -187338
832428075821286656 82149 514 -14178 -187285
832428075839499776 81562 230 -14357 -187321
832428075857713024 81154 -38 -14499 -187383
832428075875926144 80927 -152 -14597 -187322
832428075894139264 80866 -192 -14580 -187379
832428075912352384 81022 -130 -14537 -187352
832428075930565504 81277 38 -14427 -187377
832428075948778624 81768 327 -14269 -187342
832428075966991872 82199 557 -14119 -187303
832428075985204992 82633 779 -13962 -187376
832428076003418112 82948 931 -13904 -187360
832428076021631232 83261 1082 -13719 -187309
832428076039844444 83486 1204 -13700 -187261
832428076058057472 83484 1207 -13679 -187341
832428076076270464 83524 1265 -13637 -187294
832428076094483328 83558 1322 -13544 -187255
832428076112696320 83688 1334 -13592 -187266
832428076130909184 83939 1457 -13470 -187304
832428076149122176 84301 1649 -13330 -187339
832428076167335040 84758 1912 -13135 -187349
832428076185548032 85257 2216 -12953 -187320
832428076203760896 85546 2277 -12842 -187354
832428076221973888 85575 2328 -12891 -187369
832428076240186752 85359 2146 -12945 -187344
832428076258399744 84785 1901 -13132 -187363
832428076276612608 84027 1542 -13440 -187340
832428076294825600 83147 1095 -13766 -187391
832428076313038464 82320 652 -14091 -187328
832428076331251456 81594 280 -14380 -187346
832428076349464320 81164 -26 -14531 -187324
832428076367677312 80916 -109 -14583 -187315
832428076385890176 80890 -132 -14575 -187302
832428076404103168 81065 -55 -14555 -187345
832428076422316032 81365 103 -14444 -187283
832428076440529024 81883 388 -14214 -187286
832428076458741888 82224 595 -14114 -187301
832428076476954880 82574 780 -13968 -187318
832428076495167744 82847 962 -13850 -187311
832428076513380736 83010 1007 -13874 -187318
832428076531593728 83133 1003 -13734 -187340
832428076549806592 83331 1148 -13716 -187337
832428076568019584 83436 1188 -13643 -187290
832428076586232448 83541 1234 -13640 -187269
832428076604445440 83711 1391 -13548 -187308
832428076622658304 83908 1459 -13502 -187327
832428076640871296 84365 1731 -13271 -187321
832428076659084160 84800 1953 -13119 -187253
832428076677297152 85116 2121 -13036 -187294
832428076695509944 85467 2284 -12910 -187362
832428076713722368 85509 2360 -12891 -187345
832428076731934848 85301 2233 -12931 -187308
832428076750147328 84937 2020 -13060 -187357
832428076768359808 84277 1659 -13326 -187352
832428076786572288 83473 1243 -13640 -187350
832428076804784768 82716 847 -13860 -187369
832428076822997248 82091 523 -14142 -187368
832428076841209728 81572 212 -14323 -187332
832428076859422336 81194 60 -14450 -187320
832428076877634816 80901 -106 -14597 -187390
832428076895847296 80877 -150 -14572 -187336
832428076914059776 81029 -35 -14530 -187291
832428076932272256 81432 111 -14424 -187368
832428076950484736 81907 386 -14238 -187349
832428076968697216 82281 575 -14076 -187381
832428076986909696 82612 784 -13962 -187342
832428077005122176 82928 965 -13863 -187332
832428077023334656 83270 1127 -13743 -187292
832428077041547136 83412 1221 -13641 -187300
832428077059759616 83503 1254 -13637 -187325
832428077077972096 83524 1262 -13601 -187319
832428077096184576 83524 1277 -13622 -187391
832428077114397056 83614 1351 -13553 -187371
832428077132609664 83941 1498 -13434 -187354
832428077150822144 84385 1706 -13250 -187383
832428077169034624 84841 1933 -13132 -187362
832428077187247104 85301 2225 -12950 -187349
832428077205459584 85640 2419 -12775 -187362
832428077223672064 85629 2382 -12803 -187298
832428077241884544 85262 2175 -12981 -187324
832428077260097024 84641 1877 -13184 -187378
832428077278309504 83874 1445 -13485 -187351
832428077296521984 83033 1023 -13763 -187316
832428077314734464 82273 555 -14099 -187317
832428077332947040 81676 260 -14248 -187287
832428077351160192 81225 59 -14437 -187320
832428077369373312 80945 -88 -14542 -187346
832428077387586432 80958 -77 -14575 -187380
832428077405799680 80965 -149 -14575 -187372
832428077424012800 81393 88 -14420 -187381
832428077442225920 81833 369 -14235 -187355
832428077460439040 82101 536 -14167 -187406
832428077478652160 82446 771 -14002 -187330
832428077496865280 82708 842 -13870 -187253
832428077515078528 82968 974 -13796 -187317
832428077533291648 83203 1094 -13749 -187298
832428077551504768 83340 1122 -13695 -187343
832428077569717888 83452 1202 -13687 -187323
832428077587931008 83575 1235 -13628 -187325
832428077606144128 83720 1327 -13592 -187395
832428077624357376 84019 1516 -13478 -187306
832428077642570496 84284 1695 -13309 -187350
832428077660783616 84690 1905 -13186 -187357
832428077678996736 85041 2094 -13046 -187338
832428077697209856 85388 2210 -12919 -187337
832428077715423104 85498 2265 -12904 -187377
832428077733636224 85358 2265 -12874 -187289
832428077751849344 84951 2009 -13145 -187343
832428077770062464 84285 1622 -13334 -187328
832428077788275584 83442 1213 -13621 -187337
832428077806488704 82760 832 -13948 -187352
832428077824701952 82041 462 -14203 -187336
832428077842915072 81484 202 -14381 -187350
832428077861128192 81050 -59 -14570 -187349
832428077879341312 80853 -146 -14703 -187369
832428077897554432 80784 -233 -14712 -187392
832428077915767552 81064 -88 -14561 -187338
832428077933980800 81517 160 -14408 -187355
832428077952193920 82012 438 -14211 -187385
832428077970407040 82411 663 -14079 -187378
832428077988620160 82739 810 -13921 -187392
832428078006833280 83080 1006 -13811 -187361
832428078025046400 83247 1107 -13732 -187294
832428078043259594 83347 1171 -13709 -187320
832428078061472640 83392 1192 -13715 -187303
832428078079685632 83319 1147 -13726 -187378
832428078097898496 83465 1186 -13636 -187336
832428078116111488 83674 1387 -13581 -187349
832428078134324352 84087 1536 -13459 -187306
832428078152537344 84481 1774 -13351 -187373
832428078170750208 84896 1974 -13156 -187442
832428078188963200 85341 2207 -12993 -187384
832428078207176064 85647 2384 -12886 -187360
832428078225389056 85619 2407 -12848 -187355
832428078243601920 85317 2174 -12995 -187352
832428078261814912 84627 1798 -13195 -187361
832428078280027776 83666 1318 -13587 -187373
832428078298240768 82883 897 -13843 -187329
832428078316453632 82191 569 -14131 -187327
832428078334666624 81598 286 -14298 -187319
832428078352879488 81170 2 -14494 -187385
832428078371092480 80950 -41 -14535 -187304
832428078389305344 80932 -122 -14588 -187333
832428078407518336 81015 -33 -14490 -187305
832428078425731200 81395 174 -14377 -187379
832428078443944192 81781 329 -14238 -187358
832428078462157056 82117 574 -14123 -187324
832428078480370048 82424 660 -14006 -187323
832428078498582912 82737 819 -13912 -187340
832428078516795904 83062 1031 -13808 -187290
832428078535008896 83209 1095 -13753 -187313
832428078553221760 83331 1180 -13694 -187378
832428078571434752 83430 1211 -13665 -187271
832428078589647616 83482 1259 -13568 -187335
832428078607860608 83742 1387 -13484 -187298
832428078626073472 84079 1530 -13423 -187322
832428078644286464 84307 1663 -13312 -187318
832428078662499328 84618 1854 -13224 -187316
832428078680712320 85037 2076 -13074 -187286
832428078698925092 85408 2205 -12965 -187344
832428078717138432 85542 2301 -12842 -187309
832428078735351808 85378 2279 -12923 -187311
832428078753565184 84894 1988 -13131 -187350
832428078771778560 84235 1621 -13385 -187336
832428078789991936 83531 1225 -13587 -187312
832428078808205184 82814 868 -13847 -187301
832428078826418560 82054 478 -14121 -187341
832428078844631936 81481 183 -14361 -187289
832428078862845312 81018 -50 -14536 -187296
832428078881058688 80674 -208 -14681 -187323
832428078899272064 80813 -192 -14613 -187336
832428078917485440 81133 -33 -14532 -187327
832428078935698816 81531 210 -14383 -187343
832428078953912064 81963 421 -14210 -187302
832428078972125440 82367 665 -14013 -187256
832428078990338816 82804 889 -13898 -187256
832428079008552192 83030 1008 -13815 -187328
832428079026765568 83193 1049 -13747 -187310
832428079044978944 83303 1164 -13676 -187368
832428079063192320 83320 1217 -13638 -187362
832428079081405696 83333 1180 -13668 -187301
832428079099618944 83475 1265 -13659 -187355
832428079117832320 83761 1451 -13527 -187332
832428079136045696 84115 1653 -13336 -187329
832428079154259072 84541 1792 -13251 -187324
832428079172472448 84981 2014 -13079 -187318
832428079190685824 85449 2323 -12876 -187321
832428079208899200 85705 2476 -12796 -187278
832428079227112576 85544 2338 -12837 -187350
832428079245325824 85014 2096 -13076 -187357
832428079263539200 84376 1772 -13279 -187359
832428079281752576 83586 1372 -13561 -187342
832428079299965952 82861 960 -13810 -187305
832428079318179328 82181 535 -14115 -187333
832428079336392708 81590 248 -14323 -187328
832428079354605824 81185 47 -14463 -187319
832428079372818944 80959 -99 -14565 -187358
832428079391031936 81010 -156 -14601 -187311
832428079409245056 81123 -37 -14535 -187328
832428079427458048 81440 166 -14387 -187322
832428079445671168 81854 367 -14281 -187285
832428079463884160 82168 488 -14187 -187347
832428079482097280 82527 760 -14007 -187283
832428079500310272 82848 953 -13877 -187295
832428079518523392 83117 1069 -13741 -187274
832428079536736384 83283 1124 -13759 -187305
832428079554949504 83320 1195 -13704 -187323
832428079573162624 83538 1199 -13622 -187339
832428079591375616 83670 1287 -13588 -187290
832428079609588736 83818 1450 -13537 -187278
832428079627801728 84064 1581 -13392 -187247
832428079646014848 84283 1677 -13383 -187272
832428079664227840 84638 1871 -13194 -187278
832428079682440960 85126 2084 -13013 -187295
832428079700653952 85514 2364 -12834 -187284
832428079718867072 85606 2337 -12868 -187377
832428079737080064 85373 2277 -12919 -187421
832428079755293184 84877 2010 -13074 -187327
832428079773506304 84214 1653 -13312 -187352
832428079791719296 83402 1198 -13710 -187358
832428079809932416 82585 769 -14023 -187273
832428079828145408 81826 358 -14244 -187278
832428079846358528 81256 94 -14489 -187281
832428079864571520 80827 -140 -14633 -187284
832428079882784640 80796 -179 -14639 -187342
832428079900997632 80874 -135 -14616 -187340
832428079919210752 81184 74 -14480 -187327
832428079937423744 81640 300 -14293 -187332
832428079955636864 82025 469 -14159 -187380
832428079973849984 82484 775 -13996 -187367
832428079992062976 82855 927 -13843 -187316
832428080010276096 83115 1059 -13760 -187287
832428080028489062 83187 1130 -13798 -187320
832428080046702336 83234 1127 -13715 -187351
832428080064915584 83362 1181 -13663 -187269
832428080083128832 83414 1181 -13612 -187272
832428080101341952 83577 1325 -13599 -187334
832428080119555200 83852 1506 -13485 -187311
832428080137768448 84231 1643 -13358 -187301
832428080155981696 84658 1852 -13212 -187287
832428080174194944 85154 2105 -12993 -187337
832428080192408192 85489 2326 -12921 -187360
832428080210621312 85571 2414 -12834 -187328
832428080228834560 85423 2328 -12878 -187299
832428080247047808 84992 2071 -13030 -187270
832428080265261056 84385 1760 -13274 -187304
832428080283474304 83686 1304 -13560 -187274
832428080301687424 82914 941 -13886 -187291
832428080319900672 82091 515 -14173 -187325
832428080338113920 81571 310 -14319 -187293
832428080356327168 81253 70 -14504 -187414
832428080374540416 81019 -62 -14597 -187364
832428080392753664 81023 -95 -14608 -187295
832428080410966784 81099 -11 -14530 -187311
832428080429180032 81430 108 -14399 -187311
832428080447393280 81769 390 -14265 -187302
832428080465606528 82234 586 -14119 -187290
832428080483819776 82580 735 -13977 -187349
832428080502032896 82944 927 -13825 -187341
832428080520246144 83125 1078 -13732 -187338
832428080538459392 83354 1129 -13721 -187322
832428080556672640 83565 1215 -13671 -187335
832428080574885888 83594 1235 -13613 -187332
832428080593099136 83711 1307 -13574 -187272
832428080611312256 83774 1402 -13518 -187300
832428080629525504 83971 1561 -13432 -187244
832428080647738752 84216 1600 -13359 -187361
832428080665952000 84677 1864 -13198 -187306
832428080684165248 85177 2076 -13007 -187337
832428080702378382 85523 2289 -12874 -187330
832428080720591488 85591 2305 -12878 -187299
832428080738804608 85406 2191 -12916 -187341
832428080757017728 84931 1992 -13132 -187288
832428080775230976 84146 1574 -13369 -187273
832428080793444096 83203 1175 -13719 -187324
832428080811657216 82399 656 -14072 -187356
832428080829870336 81688 333 -14281 -187327
832428080848083456 81129 12 -14527 -187362
832428080866296576 80917 -108 -14561 -187342
832428080884509824 80838 -134 -14603 -187311
832428080902722944 80953 -51 -14581 -187309
832428080920936064 81269 95 -14433 -187339
832428080939149184 81719 309 -14287 -187293
832428080957362304 82129 552 -14116 -187306
832428080975575424 82617 812 -13899 -187249
832428080993788672 82899 913 -13810 -187301
832428081012001792 83080 1013 -13738 -187298
832428081030214912 83156 1061 -13817 -187306
832428081048428032 83265 1103 -13722 -187284
832428081066641152 83339 1122 -13676 -187310
832428081084854400 83464 1246 -13586 -187334
832428081103067520 83625 1324 -13544 -187334
832428081121280640 83925 1485 -13454 -187330
832428081139493760 84238 1628 -13353 -187326
832428081157706880 84740 1911 -13133 -187315
832428081175920000 85138 2141 -12990 -187295
832428081194133248 85489 2282 -12878 -187293
832428081212346368 85566 2410 -12813 -187313
832428081230559488 85356 2278 -12906 -187350
832428081248772608 84961 2077 -13023 -187282
832428081266985728 84288 1708 -13295 -187336
832428081285198848 83627 1306 -13588 -187342
832428081303412096 82761 789 -13882 -187354
832428081321625216 82032 436 -14150 -187327
832428081339838368 81584 184 -14392 -187303
832428081358051456 81205 -28 -14485 -187379
832428081376264576 80951 -150 -14602 -187352
832428081394477696 80861 -118 -14592 -187368
832428081412690944 80976 -96 -14545 -187395
832428081430904064 81283 98 -14472 -187337
832428081449117184 81736 286 -14290 -187338
832428081467330304 82200 587 -14165 -187408
832428081485543424 82638 745 -13981 -187316
832428081503756544 82884 901 -13866 -187349
832428081521969792 83114 1082 -13785 -187360
832428081540182912 83311 1151 -13688 -187403
832428081558396032 83438 1184 -13635 -187337
832428081576609152 83447 1277 -13650 -187401
832428081594822272 83533 1303 -13587 -187359
832428081613035392 83681 1330 -13511 -187315
832428081631248640 83835 1426 -13506 -187372
832428081649461760 84228 1635 -13346 -187373
832428081667674880 84734 1889 -13146 -187335
832428081685888000 85254 2142 -13038 -187291
832428081704101120 85631 2296 -12868 -187330
832428081722314368 85589 2326 -12913 -187326
832428081740527488 85368 2237 -12954 -187323
832428081758740608 84792 1928 -13218 -187355
832428081776953728 83978 1479 -13467 -187378
832428081795166848 83154 983 -13785 -187324
832428081813379968 82239 597 -14109 -187352
832428081831593216 81592 171 -14332 -187370
832428081849806336 81176 -6 -14501 -187356
832428081868019456 81007 -105 -14571 -187356
832428081886232576 80908 -91 -14604 -187300
832428081904445696 80981 -30 -14592 -187298
832428081922658816 81271 132 -14430 -187337
832428081940872064 81709 380 -14301 -187375
832428081959085184 82133 539 -14136 -187361
832428081977298304 82531 708 -13980 -187355
832428081995511424 82767 898 -13845 -187345
832428082013724638 82949 925 -13844 -187346
832428082031937024 83172 1036 -13834 -187294
832428082050149376 83310 1081 -13699 -187294
832428082068361600 83326 1096 -13740 -187366
832428082086573952 83526 1194 -13632 -187357
832428082104786176 83686 1296 -13553 -187339
832428082122998528 83954 1443 -13497 -187334
832428082141210752 84320 1656 -13381 -187366
832428082159423104 84691 1867 -13222 -187363
832428082177635328 85062 2041 -13102 -187397
832428082195847680 85444 2208 -12908 -187392
832428082214060032 85408 2249 -12938 -187338
832428082232272256 85302 2248 -12984 -187334
832428082250484608 84818 1963 -13122 -187325
832428082268696832 84234 1621 -13373 -187369
832428082286909184 83528 1308 -13627 -187367
832428082305121408 82714 831 -13929 -187390
832428082323333760 82021 502 -14195 -187357
832428082341545984 81537 200 -14372 -187367
832428082359758336 81169 104 -14506 -187371
832428082377970560 80959 -106 -14595 -187311
832428082396182912 80830 -141 -14606 -187363
832428082414395264 80944 -86 -14530 -187357
832428082432607488 81433 128 -14445 -187379
832428082450819840 81852 378 -14265 -187342
832428082469032064 82355 682 -14035 -187325
832428082487244416 82757 837 -13920 -187305
832428082505456640 83001 984 -13858 -187318
832428082523668992 83183 1102 -13813 -187332
832428082541881216 83354 1206 -13677 -187353
832428082560093568 83430 1196 -13684 -187328
832428082578305920 83399 1182 -13670 -187372
832428082596518144 83397 1212 -13678 -187384
832428082614730496 83575 1308 -13601 -187353
832428082632942720 83976 1464 -13495 -187368
832428082651155072 84427 1737 -13292 -187345
832428082669367248 84795 1994 -13167 -187391
832428082687580416 85238 2195 -12965 -187318
832428082705793536 85540 2273 -12908 -187338
832428082724006656 85563 2383 -12894 -187393
832428082742219904 85248 2280 -12947 -187355
832428082760433024 84670 1889 -13170 -187366
832428082778646144 83795 1429 -13513 -187323
832428082796859264 83014 1050 -13783 -187329
832428082815072384 82188 614 -14064 -187244
832428082833285504 81583 280 -14295 -187301
832428082851498752 81144 21 -14584 -187349
832428082869711872 80939 -90 -14597 -187368
832428082887924992 80826 -161 -14662 -187400
832428082906138112 81040 -84 -14594 -187353
832428082924351232 81347 103 -14496 -187380
832428082942564352 81827 358 -14279 -187368
832428082960777600 82097 489 -14203 -187377
832428082978990720 82422 660 -14041 -187356
832428082997203840 82729 801 -13977 -187300
832428083015416960 83027 986 -13826 -187257
832428083033630080 83154 1062 -13739 -187312
832428083051843200 83267 1154 -13715 -187300
832428083070056448 83408 1160 -13660 -187344
832428083088269568 83563 1235 -13636 -187380
832428083106482688 83781 1356 -13543 -187309
832428083124695808 84007 1529 -13458 -187368
832428083142908928 84312 1631 -13372 -187398
832428083161122176 84689 1869 -13222 -187363
832428083179335296 85041 2038 -13065 -187347
832428083197548416 85398 2237 -12957 -187293
832428083215761536 85477 2241 -12939 -187330
832428083233974656 85335 2171 -12937 -187350
832428083252187776 84788 1919 -13144 -187428
832428083270401024 84192 1581 -13416 -187364
832428083288614144 83464 1204 -13650 -187360
832428083306827264 82787 870 -13914 -187302
832428083325040368 82098 484 -14157 -187310
832428083343252736 81457 165 -14401 -187375
832428083361465088 81074 -75 -14485 -187340
832428083379677440 80847 -184 -14574 -187377
832428083397889792 80718 -244 -14669 -187356
832428083416102144 80984 -48 -14520 -187340
832428083434314496 81483 223 -14336 -187308
832428083452526720 81932 427 -14228 -187354
832428083470739072 82365 587 -14086 -187346
832428083488951424 82671 802 -13913 -187389
832428083507163776 83119 1004 -13725 -187327
832428083525376128 83199 1135 -13759 -187394
832428083543588480 83271 1155 -13696 -187363
832428083561800832 83285 1128 -13676 -187317
832428083580013184 83320 1175 -13678 -187300
832428083598225536 83528 1265 -13654 -187330
832428083616437888 83692 1336 -13570 -187376
832428083634650112 84052 1479 -13432 -187295
832428083652862464 84437 1694 -13264 -187353
832428083671074816 84894 1949 -13079 -187339
832428083689287168 85283 2181 -12970 -187369
832428083707499520 85639 2280 -12906 -187359
832428083725711872 85571 2260 -12904 -187381
832428083743924224 85127 2082 -12967 -187409
832428083762136576 84514 1786 -13212 -187395
832428083780348928 83682 1388 -13546 -187381
832428083798561280 82880 882 -13842 -187364
832428083816773504 82112 535 -14105 -187334
832428083834985856 81528 194 -14359 -187352
832428083853198208 81181 27 -14428 -187330
832428083871410560 80979 -132 -14529 -187318
832428083889622912 80942 -114 -14592 -187312
832428083907835264 81017 -24 -14568 -187325
832428083926047616 81393 148 -14412 -187360
832428083944259968 81771 378 -14320 -187370
832428083962472320 82159 495 -14154 -187298
832428083980684672 82415 651 -14055 -187332
832428083998896896 82707 833 -13882 -187340
832428084017109262 83011 1027 -13795 -187335
832428084035323264 83146 1116 -13745 -187310
832428084053537280 83351 1178 -13711 -187316
832428084071751168 83396 1175 -13648 -187306
832428084089965184 83569 1231 -13621 -187360
832428084108179072 83778 1353 -13553 -187301
832428084126393088 84030 1475 -13461 -187376
832428084144607104 84316 1676 -13349 -187398
832428084162820992 84665 1781 -13193 -187362
832428084181035008 84981 1994 -13089 -187345
832428084199249024 85406 2269 -12942 -187320
832428084217462912 85544 2345 -12900 -187332
832428084235676928 85317 2201 -12985 -187318
832428084253890816 84864 1999 -13085 -187311
832428084272104832 84206 1684 -13409 -187338
832428084290318848 83469 1275 -13636 -187361
832428084308532736 82701 881 -13930 -187346
832428084326746752 81937 358 -14214 -187319
832428084344960768 81376 75 -14379 -187326
832428084363174656 80957 -59 -14605 -187406
832428084381388672 80720 -183 -14651 -187363
832428084399602560 80800 -162 -14617 -187339
832428084417816576 81113 27 -14535 -187342
832428084436030592 81545 184 -14370 -187380
832428084454244480 82053 446 -14174 -187386
832428084472458496 82468 619 -14053 -187410
832428084490672384 82831 827 -13930 -187381
832428084508886400 83087 1014 -13820 -187329
832428084527100416 83200 1109 -13781 -187322
832428084545314304 83267 1134 -13759 -187377
832428084563528320 83268 1147 -13758 -187385
832428084581742336 83358 1126 -13709 -187371
832428084599956224 83500 1224 -13723 -187349
832428084618170240 83754 1358 -13611 -187376
832428084636384128 84111 1576 -13423 -187345
832428084654598144 84488 1804 -13305 -187328
832428084672812160 84973 2014 -13125 -187306
832428084691026050 85554 2352 -12915 -187242
832428084709239168 85710 2405 -12813 -187323
832428084727452288 85524 2350 -12874 -187355
832428084745665408 85045 2068 -13066 -187367
832428084763878656 84294 1752 -13331 -187357
832428084782091776 83592 1374 -13624 -187372
832428084800304896 82848 965 -13858 -187324
832428084818518016 82184 581 -14109 -187328
832428084836731136 81575 200 -14400 -187357
832428084854944256 81135 40 -14549 -187340
832428084873157504 81067 -103 -14588 -187322
832428084891370624 81019 -98 -14542 -187361
832428084909583744 81180 36 -14518 -187364
832428084927796864 81450 168 -14424 -187339
832428084946009984 81729 267 -14289 -187333
832428084964223104 81990 455 -14151 -187375
832428084982436352 82472 763 -14024 -187383
832428085000649472 82827 922 -13900 -187307
832428085018862592 83052 1077 -13813 -187306
832428085037075712 83201 1145 -13759 -187299
832428085055288832 83295 1144 -13733 -187309
832428085073502080 83492 1201 -13688 -187337
832428085091715200 83636 1271 -13607 -187377
832428085109928320 83748 1351 -13539 -187368
832428085128141440 83959 1474 -13448 -187291
832428085146354560 84292 1596 -13363 -187351
832428085164567680 84604 1786 -13292 -187338
832428085182780928 85042 2065 -13114 -187338
832428085200994048 85423 2239 -12915 -187384
832428085219207168 85493 2338 -12861 -187328
832428085237420288 85295 2181 -12945 -187322
832428085255633408 84836 1940 -13080 -187338
832428085273846528 84198 1599 -13465 -187374
832428085292059776 83432 1160 -13665 -187325
832428085310272896 82578 701 -13998 -187320
832428085328486036 81792 343 -14240 -187400
832428085346699136 81258 38 -14495 -187353
832428085364912256 80971 -208 -14639 -187322
832428085383125376 80797 -230 -14685 -187363
832428085401338624 80950 -114 -14633 -187392
832428085419551744 81260 -8 -14487 -187374
832428085437764864 81682 239 -14313 -187311
832428085455977984 82113 522 -14177 -187358
832428085474191104 82545 704 -14049 -187360
832428085492404224 82899 870 -13944 -187377
832428085510617472 83149 991 -13799 -187347
832428085528830592 83145 1075 -13791 -187321
832428085547043712 83157 1153 -13738 -187338
832428085565256832 83328 1106 -13695 -187273
832428085583469952 83399 1249 -13648 -187313
832428085601683072 83578 1284 -13592 -187309
832428085619896320 83837 1406 -13509 -187362
832428085638109440 84237 1627 -13330 -187317
832428085656322560 84548 1812 -13224 -187296
832428085674535680 85019 2052 -13070 -187318
832428085692748800 85512 2229 -12933 -187364
832428085710962048 85571 2371 -12911 -187385
832428085729175168 85332 2265 -12929 -187299
832428085747388288 84871 2010 -13108 -187310
832428085765601408 84265 1696 -13336 -187343
832428085783814528 83559 1260 -13649 -187372
832428085802027648 82867 881 -13913 -187344
832428085820240896 82153 486 -14096 -187316
832428085838454016 81585 197 -14364 -187363
832428085856667136 81257 43 -14493 -187367
832428085874880256 80993 -65 -14576 -187361
832428085893093376 80973 -137 -14533 -187338
832428085911306496 81118 -50 -14524 -187366
832428085929519744 81321 162 -14406 -187351
832428085947732864 81633 313 -14295 -187334
832428085965945984 82088 521 -14158 -187330
832428085984159104 82490 810 -13998 -187287
832428086002372224 82853 978 -13831 -187351
832428086020585344 83146 1049 -13760 -187326
832428086038798590 83368 1148 -13679 -187295
832428086057010944 83481 1251 -13679 -187318
832428086075223296 83535 1348 -13673 -187299
832428086093435776 83552 1336 -13655 -187298
832428086111648128 83684 1366 -13598 -187355
832428086129860608 83937 1475 -13509 -187340
832428086148072960 84150 1589 -13342 -187321
832428086166285312 84671 1938 -13182 -187300
832428086184497792 85173 2172 -12989 -187332
832428086202710144 85573 2415 -12883 -187300
832428086220922496 85532 2366 -12894 -187355
832428086239134976 85306 2233 -12994 -187343
832428086257347328 84811 1917 -13243 -187370
832428086275559808 84138 1621 -13407 -187334
832428086293772160 83326 1126 -13742 -187318
832428086311984512 82420 708 -14043 -187307
832428086330196992 81712 333 -14304 -187288
832428086348409344 81198 60 -14492 -187323
832428086366621824 80900 -113 -14589 -187383
832428086384834176 80894 -167 -14639 -187405
832428086403046528 80979 -152 -14616 -187379
832428086421259008 81392 86 -14356 -187317
832428086439471360 81709 300 -14311 -187347
832428086457683712 82174 551 -14131 -187341
832428086475896192 82585 742 -14003 -187384
832428086494108544 82861 942 -13893 -187323
832428086512321024 83003 1049 -13857 -187353
832428086530533376 83099 1063 -13774 -187361
832428086548745728 83234 1126 -13735 -187288
832428086566958208 83377 1178 -13702 -187362
832428086585170560 83444 1255 -13632 -187338
832428086603383040 83638 1315 -13544 -187344
832428086621595392 83866 1477 -13491 -187336
832428086639807744 84241 1634 -13389 -187390
832428086658020224 84659 1847 -13202 -187351
832428086676232636 85056 2079 -13083 -187325
832428086694446464 85518 2348 -12894 -187330
832428086712660352 85583 2316 -12899 -187332
832428086730874240 85289 2317 -12984 -187337
832428086749088000 84911 2019 -13151 -187388
832428086767301888 84266 1703 -13343 -187347
832428086785515776 83544 1351 -13576 -187344
832428086803729664 82766 895 -13920 -187336
832428086821943552 82060 507 -14207 -187321
832428086840157312 81602 228 -14342 -187301
832428086858371200 81222 30 -14481 -187317
832428086876585088 80981 -99 -14540 -187381
832428086894798976 80921 -93 -14589 -187366
832428086913012864 81059 -56 -14566 -187377
832428086931226624 81327 108 -14460 -187375
832428086949440512 81715 297 -14265 -187351
832428086967654400 82165 518 -14147 -187383
832428086985868288 82596 756 -13953 -187355
832428087004082176 82986 977 -13875 -187327
832428087022295936 83138 997 -13803 -187356
832428087040509824 83376 1185 -13752 -187366
832428087058723712 83475 1218 -13696 -187343
832428087076937600 83512 1231 -13654 -187349
832428087095151488 83579 1292 -13650 -187362
832428087113365248 83645 1252 -13636 -187366
832428087131579136 83922 1453 -13502 -187333
832428087149793024 84315 1627 -13346 -187344
832428087168006912 84789 1860 -13213 -187364
832428087186220800 85203 2099 -13084 -187356
832428087204434560 85568 2322 -12895 -187384
832428087222648448 85493 2286 -12910 -187354
832428087240862336 85338 2218 -12951 -187309
832428087259076224 84781 1913 -13146 -187378
832428087277290112 83996 1522 -13423 -187400
832428087295503872 83107 1080 -13860 -187402
832428087313717760 82237 661 -14161 -187390
832428087331931696 81585 235 -14389 -187425
832428087350144128 81089 -13 -14594 -187405
832428087368356608 80912 -126 -14618 -187391
832428087386569088 80855 -214 -14678 -187428
832428087404781568 80992 -78 -14581 -187344
832428087422993920 81280 18 -14489 -187392
832428087441206400 81736 282 -14291 -187354
832428087459418880 82173 520 -14109 -187403
832428087477631360 82524 637 -14060 -187388
832428087495843840 82775 791 -13987 -187430
832428087514056320 82943 942 -13936 -187341
832428087532268672 83117 1012 -13812 -187341
832428087550481152 83262 1076 -13767 -187336
832428087568693632 83385 1135 -13728 -187414
832428087586906112 83444 1223 -13714 -187412
832428087605118592 83593 1296 -13642 -187403
832428087623331072 83960 1435 -13442 -187336
832428087641543424 84293 1632 -13349 -187359
832428087659755904 84632 1821 -13256 -187334
832428087677968384 84986 2105 -13075 -187350
832428087696180864 85329 2228 -13014 -187401
832428087714393344 85383 2324 -12944 -187372
832428087732605824 85185 2163 -12996 -187402
832428087750818304 84888 1898 -13198 -187418
832428087769030656 84266 1597 -13438 -187341
832428087787243136 83496 1236 -13665 -187325
832428087805455616 82721 819 -13861 -187357
832428087823668096 82026 426 -14168 -187431
832428087841880576 81491 166 -14353 -187349
832428087860093056 81113 -75 -14585 -187388
832428087878305408 80887 -146 -14636 -187447
832428087896517888 80814 -225 -14651 -187422
832428087914730368 80911 -158 -14636 -187380
832428087932942848 81346 121 -14448 -187334
832428087951155328 81844 376 -14246 -187312
832428087969367808 82272 574 -14136 -187394
832428087987580160 82574 844 -13987 -187364
832428088005792640 82839 974 -13897 -187367
832428088024005166 83180 1082 -13772 -187371
832428088042219776 83386 1206 -13674 -187319
832428088060434432 83388 1156 -13687 -187355
832428088078649216 83415 1191 -13702 -187359
832428088096863872 83422 1203 -13679 -187395
832428088115078656 83570 1275 -13626 -187423
832428088133293312 83923 1506 -13520 -187383
832428088151508096 84350 1645 -13360 -187428
832428088169722752 84812 1906 -13177 -187384
832428088187937408 85208 2184 -13039 -187404
832428088206152192 85593 2368 -12888 -187380
832428088224366848 85514 2329 -12921 -187397
832428088242581632 85173 2077 -13074 -187413
832428088260796288 84527 1822 -13315 -187438
832428088279011072 83749 1383 -13527 -187408
832428088297225728 82951 961 -13828 -187390
832428088315440384 82160 553 -14109 -187359
832428088333655168 81572 215 -14331 -187418
832428088351869824 81161 -55 -14519 -187384
832428088370084608 80971 -164 -14541 -187376
832428088388299264 80935 -149 -14594 -187367
832428088406514048 81070 -128 -14640 -187378
832428088424728704 81418 171 -14367 -187358
832428088442943360 81806 361 -14320 -187407
832428088461158144 82155 541 -14169 -187388
832428088479372800 82424 661 -14071 -187381
832428088497587584 82709 839 -13967 -187390
832428088515802240 82949 972 -13886 -187397
832428088534017024 83098 1055 -13764 -187344
832428088552231680 83245 1114 -13689 -187409
832428088570446336 83425 1184 -13658 -187323
832428088588661120 83476 1255 -13659 -187351
832428088606875776 83739 1373 -13538 -187330
832428088625090560 83970 1464 -13467 -187412
832428088643305216 84329 1681 -13405 -187346
832428088661520000 84651 1934 -13203 -187338
832428088679734754 84994 2039 -13089 -187442
832428088697947904 85300 2256 -12992 -187353
832428088716161024 85484 2282 -12907 -187390
832428088734374144 85238 2214 -12976 -187407
832428088752587392 84834 1945 -13195 -187369
832428088770800512 84221 1606 -13408 -187393
832428088789013632 83462 1203 -13632 -187381
832428088807226752 82759 854 -13910 -187376
832428088825439872 82020 407 -14236 -187397
832428088843652992 81424 146 -14391 -187401
832428088861866240 81060 -94 -14592 -187360
832428088880079360 80786 -182 -14671 -187368
832428088898292480 80851 -175 -14634 -187320
832428088916505600 81198 2 -14532 -187319
832428088934718720 81587 173 -14370 -187333
832428088952931840 81925 426 -14242 -187393
832428088971145088 82348 643 -14116 -187356
832428088989358208 82771 894 -13921 -187302
832428089007571328 83085 1029 -13850 -187339
832428089025784448 83211 1127 -13809 -187320
832428089043997568 83323 1148 -13740 -187332
832428089062210816 83393 1103 -13764 -187353
832428089080423936 83297 1113 -13787 -187338
832428089098637056 83507 1223 -13699 -187341
832428089116850176 83777 1294 -13560 -187357
832428089135063296 84088 1572 -13449 -187302
832428089153276416 84442 1757 -13302 -187353
832428089171489664 84900 2000 -13116 -187359
832428089189702784 85359 2272 -12910 -187345
832428089207915904 85665 2368 -12870 -187379
832428089226129024 85561 2331 -12919 -187364
832428089244342144 85126 2128 -13000 -187380
832428089262555264 84454 1730 -13308 -187412
832428089280768512 83590 1297 -13646 -187392
832428089298981632 82771 868 -13933 -187386
832428089317194740 82100 516 -14164 -187326
832428089335408896 81522 204 -14392 -187354
832428089353623040 81084 -73 -14604 -187385
832428089371837312 81022 -64 -14559 -187329
832428089390051456 80975 -133 -14570 -187430
832428089408265728 81166 -96 -14525 -187339
832428089426479872 81461 162 -14414 -187317
832428089444694144 81786 327 -14304 -187305
832428089462908288 82048 469 -14162 -187350
832428089481122432 82451 718 -14043 -187411
832428089499336704 82824 899 -13946 -187370
832428089517550848 83100 1036 -13743 -187325
832428089535765120 83224 1087 -13739 -187333
832428089553979264 83324 1196 -13680 -187320
832428089572193536 83483 1229 -13614 -187327
832428089590407680 83658 1283 -13584 -187320
832428089608621824 83769 1488 -13503 -187349
832428089626836096 84017 1514 -13448 -187310
832428089645050240 84306 1706 -13342 -187345
832428089663264512 84616 1878 -13265 -187330
832428089681478656 84957 2078 -13138 -187286
832428089699692928 85378 2246 -12965 -187370
832428089717907072 85546 2322 -12927 -187324
832428089736121216 85273 2162 -13006 -187318
832428089754335488 84781 1886 -13248 -187389
832428089772549632 84153 1587 -13428 -187321
832428089790763904 83410 1204 -13745 -187381
832428089808978048 82673 786 -13984 -187396
832428089827192320 81959 409 -14234 -187346
832428089845406464 81337 104 -14452 -187381
832428089863620608 80907 -107 -14622 -187340
832428089881834880 80829 -194 -14628 -187312
832428089900049024 80952 -94 -14562 -187353
832428089918263296 81217 7 -14477 -187354
832428089936477440 81571 253 -14348 -187303
832428089954691712 82030 429 -14241 -187380
832428089972905856 82510 716 -13985 -187333
832428089991120000 82843 901 -13922 -187389
832428090009334272 83120 1035 -13752 -187389
832428090027548494 83197 1038 -13739 -187344
832428090045762304 83274 1109 -13731 -187334
832428090063976064 83247 1072 -13708 -187318
832428090082189696 83423 1139 -13756 -187346
832428090100403456 83511 1201 -13671 -187323
832428090118617088 83732 1368 -13563 -187343
832428090136830848 84062 1527 -13410 -187333
832428090155044608 84561 1769 -13308 -187363
832428090173258240 85129 2002 -13058 -187289
832428090191472000 85575 2269 -12896 -187349
832428090209685632 85648 2341 -12864 -187423
832428090227899392 85461 2305 -12892 -187390
832428090246113152 85043 2103 -13017 -187384
832428090264326784 84374 1731 -13333 -187378
832428090282540544 83641 1358 -13599 -187342
832428090300754176 82908 914 -13843 -187350
832428090318967936 82119 513 -14189 -187356
832428090337181696 81545 204 -14382 -187271
832428090355395328 81227 -29 -14481 -187352
832428090373609088 81098 -13 -14481 -187283
832428090391822720 81067 -26 -14510 -187296
832428090410036480 81187 -73 -14564 -187360
832428090428250240 81478 126 -14383 -187333
832428090446463872 81804 373 -14255 -187320
832428090464677632 82118 474 -14127 -187374
832428090482891264 82576 765 -13948 -187346
832428090501105024 82969 985 -13818 -187285
832428090519318784 83158 1103 -13759 -187346
832428090537532416 83253 1113 -13766 -187305
832428090555746176 83357 1139 -13724 -187317
832428090573959808 83515 1184 -13660 -187308
832428090592173568 83624 1347 -13573 -187345
832428090610387328 83802 1428 -13505 -187408
832428090628600960 84040 1546 -13439 -187353
832428090646814720 84254 1679 -13328 -187277
832428090665028316 84667 1802 -13211 -187358
832428090683240704 85112 2099 -13034 -187298
832428090701453056 85477 2291 -12907 -187356
832428090719665408 85526 2330 -12855 -187341
832428090737877888 85289 2187 -12915 -187350
832428090756090240 84752 1880 -13188 -187407
832428090774302592 84157 1612 -13381 -187370
832428090792514944 83396 1243 -13682 -187328
832428090810727296 82534 750 -14019 -187362
832428090828939776 81793 339 -14319 -187359
832428090847152128 81190 47 -14450 -187308
832428090865364480 80896 -132 -14584 -187353
832428090883576832 80846 -187 -14645 -187351
832428090901789312 80884 -198 -14600 -187343
832428090920001664 81209 -49 -14511 -187351
832428090938214016 81599 212 -14359 -187352
832428090956426368 82012 426 -14217 -187357
832428090974638720 82499 705 -14025 -187392
832428090992851200 82902 914 -13863 -187360
832428091011063552 83094 1010 -13837 -187329
832428091029275904 83157 1001 -13793 -187378
832428091047488256 83200 1100 -13727 -187332
832428091065700608 83294 1084 -13725 -187362
832428091083913088 83386 1218 -13621 -187307
832428091102125440 83594 1318 -13568 -187334
832428091120337792 83833 1428 -13496 -187320
832428091138550144 84209 1646 -13394 -187326
832428091156762624 84640 1832 -13226 -187283
832428091174974976 85101 2106 -13053 -187254
832428091193187328 85497 2294 -12883 -187312
832428091211399680 85645 2395 -12804 -187295
832428091229612032 85382 2270 -12939 -187312
832428091247824512 84892 2052 -13128 -187358
832428091266036864 84303 1700 -13329 -187282
832428091284249216 83624 1291 -13626 -187354
832428091302461568 82890 914 -13866 -187349
832428091320673968 82133 503 -14150 -187330
832428091338884096 81531 226 -14355 -187421
832428091357094272 81206 20 -14498 -187381
832428091375304448 81018 -61 -14558 -187344
832428091393514624 81023 -73 -14603 -187375
832428091411724800 81132 18 -14540 -187333
832428091429934976 81401 154 -14417 -187374
832428091448145152 81659 288 -14265 -187371
832428091466355328 82203 551 -14136 -187326
832428091484565504 82626 795 -13930 -187335
832428091502775680 82975 1016 -13832 -187304
832428091520985856 83154 1040 -13799 -187302
832428091539196032 83362 1207 -13727 -187302
832428091557406208 83439 1214 -13697 -187325
832428091575616384 83506 1243 -13630 -187366
832428091593826560 83555 1250 -13614 -187388
832428091612036736 83748 1393 -13526 -187286
832428091630246912 83938 1478 -13419 -187303
832428091648457088 84212 1639 -13308 -187342
832428091666667264 84760 1865 -13131 -187338
832428091684877440 85231 2178 -12979 -187336
832428091703087616 85503 2350 -12875 -187378
832428091721297792 85588 2304 -12892 -187345
832428091739507968 85275 2171 -12970 -187381
832428091757718144 84744 1916 -13198 -187357
832428091775928320 83962 1530 -13457 -187378
832428091794138496 83240 1136 -13726 -187380
832428091812348672 82367 691 -14016 -187385
832428091830558848 81616 276 -14374 -187345
832428091848769024 81136 -34 -14524 -187384
832428091866979200 80826 -184 -14647 -187388
832428091885189376 80842 -110 -14632 -187333
832428091903399552 80938 -101 -14585 -187350
832428091921609728 81278 55 -14480 -187384
832428091939819904 81622 261 -14367 -187350
832428091958030192 82084 457 -14237 -187379
832428091976242688 82464 678 -14036 -187360
832428091994455168 82801 873 -13892 -187350
832428092012667776 83000 990 -13778 -187349
832428092030880256 83043 1030 -13765 -187355
832428092049092864 83203 1096 -13759 -187310
832428092067305344 83307 1151 -13773 -187352
832428092085517824 83422 1211 -13721 -187267
832428092103730432 83556 1293 -13611 -187356
832428092121942912 83860 1471 -13511 -187355
832428092140155520 84254 1651 -13390 -187378
832428092158368000 84669 1818 -13260 -187338
832428092176580480 85037 2007 -13119 -187412
832428092194793088 85495 2291 -12959 -187409
832428092213005568 85569 2363 -12842 -187318
832428092231218176 85329 2254 -12985 -187326
832428092249430656 84935 1997 -13110 -187304
832428092267643264 84314 1684 -13356 -187336
832428092285855744 83584 1262 -13627 -187344
832428092304068224 82799 871 -13919 -187402
832428092322280832 82085 450 -14162 -187395
832428092340493312 81565 253 -14330 -187364
832428092358705920 81209 3 -14531 -187325
832428092376918400 80936 -171 -14626 -187387
832428092395130880 80868 -160 -14680 -187362
832428092413343488 80996 -148 -14593 -187385
832428092431555968 81286 78 -14477 -187384
832428092449768576 81647 226 -14356 -187290
832428092467981056 82204 513 -14162 -187380
832428092486193536 82641 794 -13948 -187334
832428092504406144 82950 997 -13837 -187357
832428092522618624 83134 1096 -13733 -187410
832428092540831232 83359 1257 -13695 -187323
832428092559043712 83409 1259 -13610 -187284
832428092577256192 83433 1264 -13614 -187312
832428092595468818 83523 1282 -13598 -187277
832428092613681920 83686 1291 -13557 -187274
832428092631895040 83975 1486 -13453 -187352
832428092650108160 84336 1716 -13274 -187284
832428092668321408 84795 1889 -13160 -187303
832428092686534528 85267 2146 -12997 -187406
832428092704747648 85590 2305 -12889 -187358
832428092722960768 85608 2372 -12803 -187317
832428092741173888 85335 2239 -12972 -187353
832428092759387008 84769 1894 -13160 -187357
832428092777600256 83983 1512 -13463 -187379
832428092795813376 83119 1060 -13774 -187317
832428092814026496 82283 604 -14077 -187307
832428092832239616 81661 245 -14384 -187364
832428092850452736 81158 -15 -14511 -187381
832428092868665856 80976 -136 -14564 -187329
832428092886879104 80878 -222 -14621 -187333
832428092905092224 81088 -11 -14512 -187309
832428092923305344 81383 103 -14463 -187342
832428092941518464 81855 301 -14288 -187303
832428092959731584 82259 564 -14147 -187302
832428092977944832 82540 688 -14020 -187329
832428092996157952 82755 814 -13958 -187391
832428093014371072 82943 936 -13882 -187354
832428093032584192 83107 1063 -13723 -187319
832428093050797312 83205 1097 -13755 -187369
832428093069010432 83341 1168 -13688 -187408
832428093087223680 83529 1196 -13628 -187336
832428093105436800 83711 1293 -13573 -187296
832428093123649920 83939 1504 -13493 -187344
832428093141863040 84312 1685 -13326 -187379
832428093160076160 84672 1861 -13182 -187358
832428093178289280 85008 2081 -13056 -187349
832428093196502528 85391 2307 -12917 -187335
832428093214715648 85436 2322 -12914 -187324
832428093232928804 85304 2170 -12975 -187346
832428093251141120 84915 2048 -13120 -187308
832428093269353472 84229 1648 -13362 -187330
832428093287565824 83545 1245 -13663 -187319
832428093305778176 82726 875 -13955 -187360
832428093323990528 82075 537 -14158 -187300
832428093342202880 81500 180 -14433 -187326
832428093360415232 81111 -44 -14529 -187295
832428093378627584 80831 -124 -14563 -187302
832428093396839936 80817 -217 -14602 -187305
832428093415052288 81055 -173 -14589 -187315
832428093433264640 81440 163 -14375 -187269
832428093451476992 81849 355 -14256 -187289
832428093469689472 82307 585 -14101 -187293
832428093487901824 82663 824 -13943 -187328
832428093506114176 83052 1050 -13774 -187310
832428093524326528 83222 1105 -13791 -187347
832428093542538880 83375 1156 -13644 -187285
832428093560751232 83388 1197 -13638 -187305
832428093578963584 83440 1229 -13593 -187246
832428093597175936 83419 1259 -13693 -187345
832428093615388288 83661 1320 -13618 -187305
832428093633600640 84008 1555 -13471 -187317
832428093651812992 84394 1720 -13321 -187389
832428093670025344 84848 1983 -13136 -187371
832428093688237696 85386 2257 -12911 -187374
832428093706450048 85683 2422 -12780 -187290
832428093724662400 85574 2328 -12851 -187374
832428093742874752 85257 2278 -12939 -187322
832428093761087104 84677 1948 -13158 -187299
832428093779299456 83905 1495 -13484 -187325
832428093797511808 83035 1017 -13795 -187373
832428093815724160 82275 595 -14134 -187387
832428093833936512 81554 218 -14370 -187357
832428093852148864 81171 30 -14521 -187357
832428093870361314 80941 -126 -14616 -187403
832428093888574720 80937 -156 -14625 -187359
832428093906788096 81142 -41 -14528 -187342
832428093925001344 81475 116 -14414 -187372
832428093943214592 81806 366 -14256 -187329
832428093961427968 82138 567 -14144 -187329
832428093979641344 82501 712 -13984 -187335
832428093997854592 82732 808 -13905 -187362
832428094016067840 82961 955 -13812 -187394
832428094034281216 83168 1025 -13747 -187373
832428094052494592 83296 1177 -13664 -187362
832428094070707840 83426 1250 -13641 -187352
832428094088921088 83506 1251 -13676 -187410
832428094107134464 83748 1375 -13568 -187392
832428094125347840 84054 1608 -13463 -187352
832428094143561088 84303 1693 -13364 -187392
832428094161774336 84674 1867 -13183 -187372
832428094179987712 85008 2092 -13069 -187313
832428094198201088 85335 2236 -12983 -187364
832428094216414336 85510 2331 -12917 -187353
832428094234627584 85282 2201 -13032 -187362
832428094252840960 84890 2039 -13167 -187369
832428094271054336 84277 1655 -13375 -187337
832428094289267584 83454 1204 -13710 -187446
832428094307480832 82754 844 -13923 -187344
832428094325694208 82084 482 -14174 -187367
832428094343907584 81465 180 -14428 -187352
832428094362120832 80993 -47 -14560 -187345
832428094380334080 80782 -194 -14684 -187390
832428094398547456 80851 -162 -14642 -187358
832428094416760832 81121 -20 -14537 -187401
832428094434974080 81543 182 -14426 -187366
832428094453187328 81939 354 -14243 -187392
832428094471400704 82364 631 -14062 -187373
832428094489614080 82721 811 -13892 -187356
832428094507827328 83062 968 -13796 -187342
832428094526040546 83235 1035 -13759 -187371
832428094544253440 83270 1111 -13734 -187353
832428094562466304 83234 1114 -13792 -187364
832428094580679168 83296 1171 -13718 -187371
832428094598892160 83500 1220 -13650 -187345
832428094617105024 83793 1313 -13555 -187395
832428094635317888 84167 1516 -13386 -187329
832428094653530752 84520 1772 -13226 -187334
832428094671743616 84875 1969 -13095 -187391
832428094689956608 85391 2210 -12968 -187376
832428094708169472 85688 2383 -12805 -187335
832428094726382336 85587 2377 -12863 -187339
832428094744595200 85091 2123 -13062 -187305
832428094762808064 84433 1804 -13298 -187387
832428094781020928 83688 1348 -13588 -187323
832428094799233920 82902 925 -13867 -187366
832428094817446784 82196 567 -14073 -187318
832428094835659648 81546 199 -14346 -187364
832428094853872512 81109 23 -14503 -187361
832428094872085376 80936 -157 -14544 -187361
832428094890298368 80952 -109 -14582 -187373
832428094908511232 81206 63 -14438 -187316
832428094926724096 81481 222 -14386 -187304
832428094944936960 81765 339 -14288 -187342
832428094963149824 82075 518 -14195 -187346
832428094981362816 82350 638 -14080 -187356
832428094999575680 82731 883 -13910 -187372
832428095017788544 83010 1031 -13835 -187335
832428095036001408 83226 1137 -13760 -187303
832428095054214272 83307 1109 -13748 -187370
832428095072427136 83438 1209 -13699 -187378
832428095090640128 83613 1296 -13620 -187356
832428095108852992 83805 1435 -13520 -187377
832428095127065856 84019 1549 -13469 -187389
832428095145278720 84274 1680 -13375 -187408
832428095163491584 84593 1847 -13257 -187360
832428095181704520 85024 2078 -13130 -187407
832428095199918592 85411 2250 -12943 -187410
832428095218132608 85525 2300 -12906 -187332
832428095236346624 85329 2229 -12951 -187337
832428095254560512 84751 1939 -13164 -187350
832428095272774528 84096 1562 -13448 -187316
832428095290988544 83411 1200 -13637 -187341
832428095309202560 82616 747 -13919 -187332
832428095327416576 81841 373 -14231 -187379
832428095345630464 81213 93 -14435 -187434
832428095363844480 80857 -133 -14608 -187438
832428095382058496 80782 -197 -14678 -187387
832428095400272512 80902 -120 -14638 -187386
832428095418486528 81237 41 -14517 -187353
832428095436700416 81561 196 -14366 -187417
832428095454914432 81969 419 -14167 -187374
832428095473128448 82355 643 -14055 -187393
832428095491342464 82805 899 -13896 -187321
832428095509556480 83051 1064 -13797 -187320
832428095527770368 83175 1130 -13770 -187326
832428095545984384 83219 1164 -13680 -187336
832428095564198400 83216 1169 -13724 -187309
832428095582412416 83333 1181 -13681 -187346
832428095600626432 83530 1251 -13567 -187351
832428095618840320 83826 1448 -13518 -187349
832428095637054336 84165 1611 -13383 -187368
832428095655268352 84483 1748 -13277 -187366
832428095673482368 85005 1989 -13066 -187414
832428095691696384 85468 2270 -12887 -187352
832428095709910272 85668 2366 -12775 -187360
832428095728124288 85419 2248 -12929 -187397
832428095746338304 85025 2035 -13081 -187383
832428095764552320 84339 1676 -13280 -187362
832428095782766336 83595 1293 -13641 -187376
832428095800980224 82867 897 -13881 -187341
832428095819194240 82161 568 -14065 -187360
832428095837408166 81624 290 -14296 -187320
832428095855621376 81145 -4 -14513 -187380
832428095873834624 80997 -33 -14554 -187301
832428095892047872 80880 -98 -14599 -187325
832428095910261120 81176 8 -14513 -187285
832428095928474496 81417 122 -14407 -187345
832428095946687744 81766 308 -14269 -187345
832428095964900992 82060 462 -14123 -187347
832428095983114240 82492 733 -14011 -187381
832428096001327488 82914 949 -13894 -187363
832428096019540736 83188 1080 -13758 -187328
832428096037753984 83321 1117 -13726 -187335
832428096055967360 83388 1152 -13730 -187349
832428096074180608 83496 1226 -13621 -187320
832428096092393856 83607 1269 -13567 -187299
832428096110607104 83714 1377 -13557 -187322
832428096128820352 83961 1536 -13446 -187351
832428096147033600 84163 1590 -13391 -187400
832428096165246848 84670 1884 -13156 -187325
832428096183460224 85125 2088 -13031 -187345
832428096201673472 85526 2278 -12921 -187413
832428096219886720 85576 2293 -12902 -187356
832428096238099968 85318 2164 -13016 -187330
832428096256313216 84744 1899 -13165 -187367
832428096274526464 84049 1577 -13446 -187386
832428096292739712 83289 1154 -13724 -187385
832428096310953088 82465 646 -14046 -187391
832428096329166336 81717 304 -14290 -187366
832428096347379584 81125 13 -14424 -187341
832428096365592832 80766 -185 -14596 -187353
832428096383806080 80672 -226 -14674 -187395
832428096402019328 80877 -90 -14618 -187381
832428096420232576 81210 -40 -14473 -187339
832428096438445952 81596 229 -14357 -187388
832428096456659200 82083 414 -14178 -187335
832428096474872448 82576 631 -14028 -187308
832428096493085696 82821 861 -13926 -187374
832428096511299014 82996 989 -13813 -187339
832428096529512960 83121 1035 -13793 -187327
832428096547726848 83146 1066 -13762 -187343
832428096565940736 83241 1098 -13820 -187378
832428096584154496 83371 1158 -13740 -187355
832428096602368384 83495 1228 -13692 -187410
832428096620582272 83871 1455 -13565 -187342
832428096638796160 84241 1596 -13400 -187378
832428096657010048 84647 1860 -13209 -187356
832428096675223808 85101 2041 -13035 -187316
832428096693437696 85385 2230 -12893 -187371
832428096711651584 85555 2323 -12848 -187352
832428096729865472 85270 2179 -12940 -187411
832428096748079360 84805 1896 -13111 -187317
832428096766293120 84179 1589 -13408 -187351
832428096784507008 83609 1275 -13596 -187298
832428096802720896 82825 907 -13854 -187373
832428096820934784 82114 524 -14110 -187352
832428096839148672 81499 161 -14387 -187376
832428096857362432 81183 -25 -14469 -187369
832428096875576320 80979 -91 -14575 -187347
832428096893790208 80904 -149 -14608 -187388
832428096912004096 81032 -79 -14566 -187379
832428096930217984 81333 49 -14426 -187381
832428096948431744 81702 248 -14361 -187427
832428096966645632 82163 572 -14137 -187358
832428096984859520 82635 778 -13961 -187315
832428097003073408 82902 932 -13906 -187342
832428097021287296 83119 1068 -13747 -187345
832428097039501056 83256 1114 -13701 -187329
832428097057714944 83419 1154 -13717 -187293
832428097075928832 83487 1181 -13719 -187334
832428097094142720 83530 1237 -13709 -187337
832428097112356608 83692 1322 -13609 -187301
832428097130570368 83891 1465 -13480 -187345
832428097148784256 84265 1644 -13339 -187343
832428097166998074 84675 1834 -13244 -187381
832428097185211008 85187 2109 -13005 -187372
832428097203424000 85560 2337 -12857 -187379
832428097221636864 85549 2294 -12908 -187343
832428097239849856 85329 2156 -13021 -187326
832428097258062720 84789 1883 -13204 -187330
832428097276275712 84094 1518 -13446 -187356
832428097294488576 83254 1121 -13695 -187335
832428097312701568 82374 656 -14064 -187343
832428097330914432 81609 265 -14345 -187371
832428097349127424 81151 9 -14543 -187384
832428097367340288 80897 -119 -14620 -187350
832428097385553280 80838 -106 -14617 -187341
832428097403766144 81047 -84 -14576 -187355
832428097421979136 81277 24 -14481 -187360
832428097440192000 81782 260 -14251 -187366
832428097458404992 82194 480 -14077 -187295
832428097476617856 82578 712 -13992 -187346
832428097494830848 82783 927 -13858 -187287
832428097513043712 82959 998 -13833 -187361
832428097531256704 83067 1046 -13814 -187355
832428097549469568 83241 1131 -13721 -187343
832428097567682560 83364 1153 -13629 -187276
832428097585895424 83430 1229 -13621 -187339
832428097604108416 83683 1300 -13631 -187349
832428097622321280 83990 1477 -13466 -187310
832428097640534272 84389 1661 -13360 -187344
832428097658747264 84723 1853 -13211 -187311
832428097676960128 85064 2039 -13074 -187337
832428097695173120 85496 2301 -12894 -187285
832428097713385984 85520 2273 -12880 -187366
832428097731598976 85278 2169 -12987 -187372
832428097749811840 84908 1951 -13111 -187316
832428097768024832 84290 1651 -13359 -187368
832428097786237696 83517 1240 -13632 -187400
832428097804450688 82813 908 -13887 -187305
832428097822663574 82109 465 -14149 -187281
832428097840876544 81590 187 -14353 -187324
832428097859089536 81175 -52 -14496 -187370
832428097877302528 80947 -150 -14557 -187360
832428097895515648 80864 -160 -14537 -187338
832428097913728640 81002 -115 -14581 -187361
832428097931941632 81322 106 -14416 -187277
832428097950154624 81781 335 -14263 -187339
832428097968367616 82211 590 -14088 -187324
832428097986580736 82594 781 -13988 -187343
832428098004793728 83009 991 -13790 -187339
832428098023006720 83221 1106 -13750 -187322
832428098041219712 83288 1087 -13705 -187360
832428098059432832 83398 1183 -13668 -187318
832428098077645824 83473 1238 -13635 -187381
832428098095858816 83415 1196 -13693 -187372
832428098114071808 83581 1347 -13593 -187363
832428098132284800 83972 1540 -13465 -187322
832428098150497920 84365 1674 -13313 -187313
832428098168710912 84805 1901 -13164 -187299
832428098186923904 85317 2189 -12945 -187266
832428098205136896 85616 2371 -12882 -187334
832428098223349888 85645 2342 -12869 -187335
832428098241563008 85323 2216 -12988 -187371
832428098259776000 84701 1851 -13244 -187405
832428098277988992 83873 1387 -13526 -187344
832428098296201984 83026 1003 -13821 -187329
832428098314414976 82184 551 -14159 -187350
832428098332628096 81598 234 -14365 -187312
832428098350841088 81194 -46 -14487 -187368
832428098369054080 81099 -136 -14605 -187353
832428098387267072 80876 -163 -14610 -187341
832428098405480064 80946 -95 -14543 -187366
832428098423693184 81426 78 -14407 -187400
832428098441906176 81812 322 -14213 -187343
832428098460119168 82129 518 -14184 -187376
832428098478332160 82437 697 -14050 -187334
832428098496545266 82714 878 -13939 -187325
832428098514758784 82972 922 -13864 -187381
832428098532972288 83239 1069 -13832 -187323
832428098551185792 83245 1124 -13746 -187329
832428098569399168 83256 1121 -13709 -187373
832428098587612672 83532 1274 -13628 -187330
832428098605826176 83710 1253 -13599 -187394
832428098624039680 83966 1493 -13473 -187321
832428098642253056 84360 1717 -13352 -187378
832428098660466560 84698 1862 -13262 -187350
832428098678680064 85056 2047 -13034 -187364
832428098696893568 85402 2258 -12919 -187391
832428098715106944 85438 2271 -12892 -187380
832428098733320448 85344 2186 -12965 -187351
832428098751533952 84879 1905 -13148 -187368
832428098769747456 84200 1608 -13427 -187398
832428098787960832 83457 1181 -13674 -187357
832428098806174336 82744 805 -13923 -187341
832428098824387840 82118 432 -14145 -187396
832428098842601344 81605 175 -14381 -187302
832428098860814720 81074 -81 -14582 -187366
832428098879028224 80776 -207 -14645 -187366
832428098897241728 80728 -210 -14625 -187346
832428098915455232 81037 -60 -14604 -187339
832428098933668608 81407 121 -14472 -187430
832428098951882112 81851 330 -14352 -187398
832428098970095616 82328 555 -14176 -187370
832428098988309120 82667 795 -13965 -187388
832428099006522496 82954 940 -13832 -187378
832428099024736000 83249 1107 -13711 -187377
832428099042949504 83328 1181 -13674 -187332
832428099061163008 83378 1155 -13663 -187317
832428099079376384 83388 1143 -13714 -187323
832428099097589888 83378 1180 -13671 -187362
832428099115803392 83718 1388 -13589 -187307
832428099134016896 84059 1579 -13400 -187332
832428099152230272 84391 1701 -13237 -187330
832428099170443742 84881 1956 -13089 -187323
832428099188656640 85284 2175 -12953 -187332
832428099206869504 85628 2352 -12876 -187334
832428099225082240 85575 2380 -12879 -187317
832428099243295104 85237 2149 -13026 -187375
832428099261507840 84592 1865 -13185 -187315
832428099279720704 83736 1386 -13553 -187437
832428099297933568 82916 922 -13827 -187322
832428099316146304 82219 505 -14123 -187398
832428099334359168 81605 247 -14348 -187378
832428099352571904 81117 10 -14479 -187401
832428099370784768 80855 -205 -14656 -187375
832428099388997632 80851 -183 -14626 -187356
832428099407210368 81030 -26 -14595 -187424
832428099425423232 81358 146 -14435 -187421
832428099443635968 81722 322 -14253 -187386
832428099461848832 82078 516 -14159 -187359
832428099480061696 82414 709 -14033 -187320
832428099498274432 82720 809 -13969 -187372
832428099516487296 83044 995 -13885 -187357
832428099534700032 83199 1076 -13826 -187371
832428099552912896 83314 1153 -13713 -187403
832428099571125760 83422 1232 -13650 -187362
832428099589338496 83462 1237 -13650 -187405
832428099607551360 83728 1335 -13487 -187362
832428099625764096 83994 1543 -13436 -187372
832428099643976960 84280 1648 -13373 -187355
832428099662189824 84666 1849 -13189 -187367
832428099680402560 84983 1987 -13089 -187388
832428099698615424 85470 2290 -12925 -187335
832428099716828160 85487 2281 -12971 -187396
832428099735041024 85414 2202 -12973 -187359
832428099753253888 84841 1959 -13138 -187405
832428099771466624 84217 1595 -13354 -187318
832428099789679488 83393 1171 -13618 -187350
832428099807892224 82685 780 -13948 -187347
832428099826105088 81973 501 -14211 -187336
832428099844317806 81414 143 -14367 -187332
832428099862532224 80990 -81 -14527 -187305
832428099880746624 80799 -195 -14582 -187333
832428099898961024 80850 -160 -14651 -187384
832428099917175424 81133 -72 -14541 -187400
832428099935389952 81538 150 -14332 -187379
832428099953604352 81949 336 -14213 -187397
832428099971818752 82329 572 -14088 -187414
832428099990033152 82813 782 -13935 -187357
832428100008247552 83111 990 -13819 -187302
832428100026461952 83271 1061 -13729 -187336
832428100044676480 83387 1163 -13694 -187361
832428100062890880 83297 1131 -13777 -187441
832428100081105280 83310 1145 -13758 -187407
832428100099319680 83481 1209 -13696 -187432
832428100117534080 83829 1396 -13510 -187294
832428100135748480 84157 1608 -13360 -187354
832428100153963008 84523 1794 -13258 -187333
832428100172177408 84933 1970 -13150 -187400
832428100190391808 85433 2283 -12953 -187443
832428100208606208 85712 2434 -12849 -187392
832428100226820608 85561 2354 -12821 -187381
832428100245035008 85122 2076 -13077 -187393
832428100263249536 84385 1766 -13326 -187404
832428100281463936 83476 1265 -13659 -187392
832428100299678336 82784 911 -13931 -187347
832428100317892736 82134 452 -14194 -187388
832428100336107136 81582 256 -14386 -187390
832428100354321536 81178 17 -14490 -187357
832428100372536064 80888 -134 -14591 -187337
832428100390750464 80933 -122 -14586 -187387
832428100408964864 81161 -58 -14534 -187386
832428100427179264 81469 115 -14452 -187386
832428100445393664 81784 329 -14268 -187329
832428100463608064 81999 433 -14185 -187432
832428100481822592 82468 601 -14024 -187387
832428100500036992 82812 825 -13874 -187386
832428100518251378 83106 936 -13790 -187396
832428100536465280 83267 1025 -13773 -187398
832428100554679168 83352 1093 -13705 -187376
832428100572893056 83419 1128 -13705 -187398
832428100591106816 83569 1225 -13614 -187407
832428100609320704 83713 1377 -13564 -187389
832428100627534592 83947 1467 -13448 -187388
832428100645748480 84264 1674 -13382 -187388
832428100663962368 84584 1803 -13257 -187392
832428100682176128 85041 2060 -13068 -187391
832428100700390016 85403 2316 -12948 -187344
832428100718603904 85627 2350 -12908 -187325
832428100736817792 85334 2215 -13010 -187383
832428100755031680 84872 1939 -13152 -187363
832428100773245440 84138 1566 -13400 -187341
832428100791459328 83389 1179 -13702 -187357
832428100809673216 82595 753 -14012 -187392
832428100827887104 81879 420 -14235 -187384
832428100846100992 81280 91 -14379 -187334
832428100864314752 80874 -160 -14592 -187390
832428100882528640 80768 -242 -14669 -187374
832428100900742528 80860 -212 -14646 -187398
832428100918956416 81169 -57 -14542 -187367
832428100937170304 81577 149 -14405 -187363
832428100955384064 81959 388 -14239 -187384
832428100973597952 82489 633 -14056 -187361
832428100991811840 82744 856 -13917 -187362
832428101010025728 83090 1044 -13825 -187379
832428101028239616 83258 1158 -13712 -187353
832428101046453376 83252 1124 -13746 -187413
832428101064667264 83244 1079 -13796 -187377
832428101082881152 83396 1149 -13713 -187342
832428101101095040 83579 1235 -13672 -187350
832428101119308928 83881 1417 -13540 -187364
832428101137522688 84228 1596 -13415 -187318
832428101155736576 84542 1762 -13271 -187375
832428101173950438 84967 2000 -13049 -187338
832428101192164224 85428 2256 -12962 -187363
832428101210377984 85611 2348 -12893 -187379
832428101228591744 85416 2181 -13006 -187376
832428101246805504 84974 2008 -13111 -187335
832428101265019392 84303 1672 -13437 -187374
832428101283233152 83576 1290 -13623 -187355
832428101301446912 82869 921 -13855 -187363
832428101319660672 82136 507 -14097 -187301
832428101337874432 81564 204 -14341 -187329
832428101356088192 81180 -20 -14493 -187389
832428101374301952 81024 -66 -14560 -187363
832428101392515840 80963 -93 -14625 -187376
832428101410729600 81037 -83 -14588 -187376
832428101428943360 81307 108 -14376 -187356
832428101447157120 81658 279 -14289 -187336
832428101465370880 82051 513 -14176 -187356
832428101483584640 82485 750 -14024 -187347
832428101501798400 82868 947 -13865 -187350
832428101520012288 83138 970 -13835 -187394
832428101538226048 83290 1069 -13699 -187378
832428101556439808 83373 1133 -13728 -187334
832428101574653568 83459 1215 -13665 -187338
832428101592867328 83516 1231 -13688 -187390
832428101611081088 83800 1321 -13565 -187412
832428101629294848 83983 1472 -13469 -187415
832428101647508736 84197 1557 -13351 -187378
832428101665722496 84630 1803 -13217 -187349
832428101683936256 85121 2090 -13008 -187403
832428101702150016 85491 2337 -12873 -187371
832428101720363776 85507 2341 -12871 -187352
832428101738577536 85261 2237 -12991 -187318
832428101756791296 84834 1925 -13200 -187343
832428101775005184 84121 1589 -13372 -187352
832428101793218944 83309 1077 -13659 -187316
832428101811432704 82474 677 -14038 -187319
832428101829646456 81681 260 -14242 -187374
832428101847859840 81127 34 -14530 -187377
832428101866073216 80891 -112 -14564 -187385
832428101884286592 80830 -148 -14644 -187332
832428101902499840 80911 -118 -14626 -187312
832428101920713216 81234 -20 -14509 -187375
832428101938926592 81685 200 -14330 -187376
832428101957139968 82060 504 -14159 -187375
832428101975353344 82524 754 -13989 -187358
832428101993566592 82814 901 -13901 -187356
832428102011779968 83020 1038 -13774 -187372
832428102029993344 83125 1143 -13756 -187375
832428102048206720 83142 1038 -13791 -187427
832428102066419968 83266 1126 -13719 -187335
832428102084633344 83354 1137 -13682 -187361
832428102102846720 83561 1266 -13599 -187336
832428102121060096 83784 1388 -13510 -187420
