TIMESTAMP PPG0 PPG1 PPG2 AMBIENT
832428303744467200 85015 -1813 -12076 -187333
832428303762648960 85003 -1811 -12122 -187356
832428303780830848 84966 -1848 -12132 -187329
832428303799012608 84880 -1863 -12197 -187338
832428303817194496 84790 -1935 -12119 -187301
832428303835376256 84723 -1939 -12199 -187353
832428303853558144 84786 -1898 -12174 -187357
832428303871739904 84818 -1821 -12095 -187404
832428303889921792 84894 -1881 -12120 -187374
832428303908103552 84918 -1906 -12173 -187339
832428303926285440 84855 -1936 -12132 -187373
832428303944467200 85000 -1833 -12067 -187303
832428303962648960 84964 -1845 -12074 -187340
832428303980830848 84904 -1852 -12095 -187371
832428303999012608 84838 -1880 -12142 -187338
832428304017194496 84800 -1875 -12182 -187306
832428304035376256 84756 -1907 -12188 -187322
832428304053558144 84823 -1862 -12117 -187326
832428304071739904 84873 -1898 -12103 -187337
832428304089921792 84870 -1891 -12114 -187313
832428304108103552 84792 -1926 -12139 -187371
832428304126285440 84858 -1885 -12096 -187368
832428304144467200 84910 -1918 -12132 -187408
832428304162648960 84957 -1873 -12128 -187404
832428304180830848 84874 -1916 -12112 -187350
832428304199012608 84860 -1891 -12162 -187335
832428304217194496 84739 -1963 -12241 -187315
832428304235376256 84754 -1927 -12165 -187393
832428304253558144 84841 -1887 -12166 -187388
832428304271739904 84873 -1859 -12091 -187332
832428304289921792 84939 -1783 -12088 -187287
832428304308103552 84920 -1863 -12063 -187324
832428304326285440 85011 -1860 -12086 -187360
832428304344467200 85108 -1807 -12068 -187287
832428304362648960 85107 -1765 -12113 -187369
832428304380830848 84894 -1853 -12177 -187330
832428304399012608 84860 -1846 -12128 -187343
832428304417194496 84763 -1975 -12134 -187339
832428304435376256 84834 -1871 -12113 -187302
832428304453558144 84848 -1910 -12129 -187350
832428304471739904 84846 -1869 -12126 -187318
832428304489921792 84837 -1852 -12139 -187379
832428304508103552 84815 -1892 -12175 -187353
832428304526285474 84990 -1795 -12100 -187327
832428304544499712 85068 -1781 -12075 -187307
832428304562713984 85011 -1783 -12042 -187277
832428304580928256 84921 -1843 -12109 -187273
832428304599142528 84811 -1911 -12158 -187323
832428304617356800 84728 -1977 -12207 -187327
832428304635571200 84770 -1968 -12230 -187367
832428304653785472 84805 -1891 -12136 -187361
832428304671999744 84844 -1882 -12110 -187328
832428304690214016 84838 -1903 -12187 -187410
832428304708428288 84954 -1945 -12103 -187341
832428304726642560 84949 -1874 -12071 -187391
832428304744856832 84955 -1891 -12112 -187378
832428304763071104 84958 -1854 -12130 -187336
832428304781285376 84880 -1871 -12110 -187388
832428304799499776 84798 -1909 -12141 -187420
832428304817714048 84821 -1985 -12165 -187360
832428304835928320 84831 -1934 -12149 -187303
832428304854142592 84893 -1896 -12121 -187391
832428304872356864 84858 -1871 -12101 -187366
832428304890571136 84903 -1832 -12074 -187377
832428304908785408 84943 -1795 -12096 -187387
832428304926999680 84985 -1814 -12121 -187339
832428304945214080 84955 -1788 -12072 -187324
832428304963428352 84931 -1836 -12094 -187344
832428304981642624 84831 -1915 -12113 -187322
832428304999856896 84739 -1900 -12160 -187330
832428305018071168 84784 -1911 -12158 -187356
832428305036285440 84785 -1949 -12158 -187369
832428305054499712 84861 -1940 -12171 -187366
832428305072713984 84872 -1919 -12139 -187362
832428305090928256 84848 -1925 -12148 -187344
832428305109142656 84848 -1886 -12168 -187346
832428305127356928 84958 -1852 -12115 -187380
832428305145571200 84926 -1874 -12090 -187389
832428305163785472 84834 -1857 -12096 -187391
832428305181999744 84795 -1872 -12183 -187401
832428305200214016 84653 -1966 -12189 -187401
832428305218428288 84707 -1927 -12188 -187353
832428305236642560 84719 -1938 -12193 -187361
832428305254856832 84922 -1883 -12118 -187312
832428305273071232 84904 -1857 -12118 -187349
832428305291285504 84873 -1889 -12094 -187345
832428305309499776 84966 -1865 -12072 -187364
832428305327714048 84938 -1803 -12035 -187379
832428305345928320 84908 -1859 -12058 -187371
832428305364142592 84880 -1860 -12111 -187369
832428305382356864 84825 -1859 -12158 -187376
832428305400571238 84713 -1904 -12203 -187325
832428305418784896 84751 -1903 -12232 -187353
832428305436998528 84706 -1973 -12198 -187400
832428305455212160 84825 -1886 -12188 -187350
832428305473425792 84938 -1900 -12127 -187350
832428305491639424 84879 -1893 -12128 -187368
832428305509853056 84905 -1851 -12040 -187344
832428305528066688 84980 -1834 -12035 -187322
832428305546280320 84869 -1883 -12113 -187359
832428305564493952 84839 -1858 -12068 -187268
832428305582707584 84694 -1942 -12172 -187359
832428305600921216 84719 -1978 -12224 -187360
832428305619134848 84750 -1972 -12209 -187332
832428305637348352 84771 -1940 -12109 -187381
832428305655561984 84823 -1879 -12136 -187372
832428305673775616 84896 -1893 -12170 -187353
832428305691989248 84937 -1885 -12110 -187354
832428305710202880 84949 -1815 -12075 -187375
832428305728416512 84992 -1736 -12052 -187327
832428305746630144 84988 -1784 -12024 -187322
832428305764843776 84846 -1834 -12106 -187378
832428305783057408 84754 -1941 -12170 -187384
832428305801271040 84792 -1938 -12177 -187356
832428305819484672 84812 -1971 -12199 -187378
832428305837698304 84815 -1966 -12176 -187372
832428305855911936 84880 -1898 -12174 -187374
832428305874125568 84925 -1852 -12160 -187358
832428305892339200 84564 -2054 -12263 -187428
832428305910552832 84460 -2166 -12293 -187366
832428305928766464 84571 -2101 -12333 -187364
832428305946980096 84777 -1914 -12225 -187392
832428305965193728 85078 -1824 -12063 -187389
832428305983407360 85329 -1682 -11953 -187357
832428306001620992 85671 -1508 -11838 -187351
832428306019834624 85907 -1373 -11783 -187380
832428306038048128 86074 -1269 -11688 -187373
832428306056261760 86234 -1147 -11601 -187370
832428306074475392 86287 -1126 -11606 -187339
832428306092689024 86455 -1091 -11579 -187375
832428306110902656 86563 -1007 -11540 -187411
832428306129116288 86815 -839 -11357 -187391
832428306147329914 87105 -664 -11294 -187407
832428306165543424 87459 -508 -11151 -187378
832428306183756928 87775 -359 -11013 -187340
832428306201970304 88272 -106 -10775 -187299
832428306220183808 88316 -57 -10756 -187312
832428306238397184 88166 -193 -10812 -187308
832428306256610688 87690 -400 -11023 -187387
832428306274824064 86924 -767 -11313 -187398
832428306293037568 86326 -1156 -11627 -187367
832428306311250944 85459 -1591 -11923 -187446
832428306329464448 84744 -1958 -12240 -187413
832428306347677952 84129 -2276 -12404 -187368
832428306365891328 83787 -2526 -12597 -187386
832428306384104832 83535 -2574 -12647 -187372
832428306402318208 83678 -2447 -12633 -187403
832428306420531712 83962 -2345 -12524 -187383
832428306438745088 84378 -2159 -12340 -187392
832428306456958592 84774 -1927 -12175 -187443
832428306475172096 85233 -1732 -12040 -187389
832428306493385472 85616 -1516 -11858 -187362
832428306511598976 85888 -1375 -11781 -187386
832428306529812352 85982 -1345 -11719 -187387
832428306548025856 86077 -1251 -11656 -187339
832428306566239232 86156 -1217 -11633 -187357
832428306584452736 86253 -1200 -11600 -187355
832428306602666112 86370 -1090 -11588 -187334
832428306620879616 86628 -976 -11496 -187355
832428306639093120 86925 -815 -11370 -187395
832428306657306496 87322 -614 -11215 -187403
832428306675520000 87828 -328 -11083 -187345
832428306693733376 88257 -96 -10845 -187391
832428306711946880 88467 -34 -10782 -187370
832428306730160256 88259 -106 -10838 -187388
832428306748373760 87863 -269 -10987 -187306
832428306766587136 87075 -705 -11223 -187354
832428306784800580 86485 -1053 -11509 -187378
832428306803013120 85717 -1470 -11816 -187363
832428306821225600 84952 -1893 -12091 -187366
832428306839438080 84414 -2196 -12309 -187277
832428306857650560 84050 -2330 -12492 -187352
832428306875863040 83855 -2411 -12565 -187374
832428306894075392 83759 -2477 -12595 -187339
832428306912287872 83971 -2348 -12467 -187323
832428306930500352 84239 -2221 -12359 -187384
832428306948712832 84568 -2053 -12290 -187415
832428306966925312 84920 -1885 -12108 -187393
832428306985137792 85390 -1652 -11959 -187403
832428307003350272 85681 -1523 -11828 -187340
832428307021562752 85906 -1353 -11711 -187319
832428307039775104 86063 -1258 -11656 -187381
832428307057987584 86221 -1202 -11645 -187343
832428307076200064 86332 -1146 -11564 -187357
832428307094412544 86475 -1068 -11515 -187303
832428307112625024 86564 -1017 -11491 -187398
832428307130837504 86759 -842 -11379 -187350
832428307149049984 87072 -747 -11352 -187396
832428307167262464 87401 -568 -11186 -187404
832428307185474816 87910 -295 -10982 -187352
832428307203687296 88312 -83 -10864 -187417
832428307221899776 88329 -76 -10807 -187350
832428307240112256 88156 -154 -10863 -187355
832428307258324736 87634 -434 -11101 -187419
832428307276537216 87065 -737 -11304 -187360
832428307294749696 86229 -1208 -11658 -187384
832428307312962176 85402 -1593 -11886 -187370
832428307331174528 84627 -2024 -12219 -187351
832428307349387008 83996 -2357 -12449 -187366
832428307367599488 83718 -2502 -12578 -187345
832428307385811968 83573 -2584 -12634 -187403
832428307404024448 83786 -2420 -12578 -187333
832428307422236928 84016 -2317 -12390 -187336
832428307440449294 84422 -2124 -12314 -187332
832428307458663936 84803 -1970 -12171 -187405
832428307476878592 85295 -1680 -11994 -187389
832428307495093248 85638 -1508 -11837 -187417
832428307513307904 85834 -1420 -11776 -187387
832428307531522560 85944 -1357 -11760 -187397
832428307549737216 85997 -1302 -11718 -187302
832428307567952000 86036 -1330 -11688 -187411
832428307586166656 86222 -1227 -11653 -187371
832428307604381312 86407 -1122 -11578 -187379
832428307622595968 86675 -1003 -11421 -187296
832428307640810624 87011 -780 -11281 -187333
832428307659025280 87460 -554 -11066 -187370
832428307677239936 87981 -304 -10900 -187339
832428307695454592 88347 -78 -10729 -187312
832428307713669248 88384 -72 -10807 -187411
832428307731883904 88209 -165 -10857 -187396
832428307750098688 87737 -444 -10966 -187388
832428307768313344 87202 -681 -11265 -187337
832428307786528000 86401 -1107 -11554 -187400
832428307804742656 85674 -1459 -11816 -187351
832428307822957312 84927 -1869 -12057 -187368
832428307841171968 84366 -2142 -12268 -187395
832428307859386624 84027 -2353 -12410 -187391
832428307877601280 83821 -2412 -12504 -187339
832428307895815936 83846 -2434 -12537 -187351
832428307914030592 83871 -2392 -12513 -187339
832428307932245376 84161 -2250 -12458 -187362
832428307950460032 84481 -2061 -12332 -187373
832428307968674688 84896 -1885 -12111 -187361
832428307986889344 85317 -1611 -11978 -187369
832428308005104000 85662 -1526 -11838 -187393
832428308023318656 85924 -1372 -11755 -187401
832428308041533312 86141 -1224 -11677 -187366
832428308059747968 86281 -1232 -11660 -187405
832428308077962624 86359 -1138 -11594 -187376
832428308096177354 86426 -1139 -11568 -187390
832428308114390528 86492 -1024 -11508 -187392
832428308132603648 86696 -952 -11397 -187386
832428308150816768 86940 -800 -11322 -187406
832428308169030016 87442 -543 -11173 -187376
832428308187243136 87972 -285 -10974 -187415
832428308205456256 88384 -82 -10792 -187395
832428308223669376 88357 -57 -10781 -187356
832428308241882496 88102 -216 -10873 -187374
832428308260095616 87598 -478 -11103 -187430
832428308278308864 86907 -799 -11335 -187351
832428308296521984 86041 -1259 -11721 -187387
832428308314735104 85250 -1690 -11947 -187346
832428308332948224 84437 -2116 -12268 -187371
832428308351161344 84055 -2396 -12470 -187383
832428308369374464 83757 -2501 -12503 -187398
832428308387587712 83664 -2503 -12512 -187371
832428308405800832 83776 -2497 -12568 -187370
832428308424013952 84108 -2281 -12398 -187312
832428308442227072 84463 -2105 -12260 -187356
832428308460440192 84929 -1847 -12109 -187360
832428308478653312 85342 -1675 -11980 -187372
832428308496866560 85639 -1476 -11836 -187350
832428308515079680 85754 -1491 -11734 -187379
832428308533292800 85854 -1377 -11720 -187328
832428308551505920 86012 -1272 -11736 -187349
832428308569719040 86163 -1208 -11630 -187346
832428308587932288 86225 -1116 -11564 -187345
832428308606145408 86468 -1015 -11475 -187380
832428308624358528 86736 -937 -11387 -187364
832428308642571648 87099 -723 -11271 -187340
832428308660784768 87490 -514 -11128 -187369
832428308678997888 87872 -318 -11008 -187323
832428308697211136 88310 -94 -10798 -187376
832428308715424256 88364 -30 -10738 -187362
832428308733637376 88112 -207 -10862 -187326
832428308751850474 87726 -392 -11028 -187342
832428308770064128 87148 -746 -11301 -187319
832428308788277760 86410 -1114 -11514 -187357
832428308806491392 85454 -1586 -11897 -187406
832428308824705024 84808 -1900 -12098 -187411
832428308842918656 84359 -2178 -12340 -187383
832428308861132288 84000 -2276 -12466 -187371
832428308879345920 83746 -2406 -12475 -187323
832428308897559424 83686 -2462 -12539 -187351
832428308915773056 83857 -2394 -12521 -187300
832428308933986688 84119 -2216 -12475 -187347
832428308952200320 84572 -1987 -12258 -187362
832428308970413952 85001 -1744 -12091 -187361
832428308988627584 85552 -1585 -11882 -187366
832428309006841216 85777 -1377 -11765 -187380
832428309025054848 85950 -1297 -11697 -187394
832428309043268480 86140 -1155 -11640 -187375
832428309061482112 86311 -1082 -11594 -187363
832428309079695744 86382 -1080 -11610 -187369
832428309097909376 86428 -1192 -11591 -187379
832428309116123008 86573 -1040 -11489 -187355
832428309134336512 86800 -901 -11438 -187396
832428309152550144 87221 -656 -11271 -187401
832428309170763776 87587 -494 -11103 -187413
832428309188977408 88165 -173 -10888 -187404
832428309207191040 88378 -113 -10789 -187381
832428309225404672 88379 -108 -10794 -187300
832428309243618304 88076 -191 -10925 -187340
832428309261831936 87588 -477 -11070 -187358
832428309280045568 86844 -829 -11428 -187344
832428309298259200 85961 -1267 -11688 -187351
832428309316472832 85012 -1717 -12043 -187346
832428309334686464 84439 -2132 -12356 -187380
832428309352900096 84050 -2332 -12417 -187385
832428309371113600 83705 -2483 -12515 -187353
832428309389327246 83688 -2519 -12547 -187367
832428309407540736 83822 -2417 -12540 -187362
832428309425754240 84072 -2334 -12480 -187369
832428309443967744 84556 -2065 -12276 -187325
832428309462181248 84944 -1858 -12130 -187362
832428309480394752 85267 -1710 -11973 -187378
832428309498608256 85552 -1547 -11890 -187398
832428309516821760 85729 -1403 -11737 -187349
832428309535035392 85801 -1346 -11786 -187407
832428309553248896 86091 -1248 -11710 -187375
832428309571462400 86205 -1234 -11652 -187394
832428309589675904 86312 -1154 -11580 -187364
832428309607889408 86527 -1078 -11520 -187389
832428309626102912 86838 -909 -11410 -187425
832428309644316416 87153 -699 -11240 -187377
832428309662529920 87423 -561 -11114 -187407
832428309680743424 87854 -296 -11048 -187391
832428309698956928 88308 -146 -10838 -187369
832428309717170432 88355 -114 -10833 -187339
832428309735383936 88128 -149 -10876 -187376
832428309753597440 87745 -334 -10958 -187342
832428309771810944 87093 -749 -11257 -187386
832428309790024576 86391 -1099 -11564 -187402
832428309808238080 85577 -1546 -11834 -187393
832428309826451584 84934 -1919 -12113 -187341
832428309844665088 84323 -2211 -12328 -187376
832428309862878592 83941 -2306 -12445 -187352
832428309881092096 83747 -2484 -12541 -187309
832428309899305600 83608 -2494 -12557 -187322
832428309917519104 83697 -2481 -12574 -187338
832428309935732608 84146 -2219 -12422 -187351
832428309953946112 84684 -1920 -12198 -187355
832428309972159616 85099 -1698 -12047 -187346
832428309990373120 85531 -1489 -11921 -187328
832428310008586624 85763 -1352 -11791 -187380
832428310026800256 86094 -1265 -11719 -187370
832428310045013760 86200 -1233 -11660 -187368
832428310063227248 86184 -1220 -11639 -187403
832428310081441280 86167 -1218 -11684 -187372
832428310099655296 86368 -1100 -11572 -187357
832428310117869312 86500 -975 -11493 -187312
832428310136083328 86814 -826 -11430 -187319
832428310154297344 87206 -608 -11171 -187327
832428310172511360 87661 -392 -11042 -187317
832428310190725376 88187 -140 -10881 -187386
832428310208939392 88381 28 -10770 -187371
832428310227153408 88252 -54 -10754 -187369
832428310245367424 88032 -263 -10885 -187353
832428310263581440 87559 -556 -11152 -187405
832428310281795456 86646 -936 -11463 -187364
832428310300009472 85822 -1385 -11770 -187360
832428310318223488 84990 -1818 -12070 -187413
832428310336437504 84465 -2143 -12302 -187355
832428310354651520 83986 -2359 -12473 -187377
832428310372865536 83795 -2504 -12510 -187367
832428310391079552 83721 -2491 -12556 -187352
832428310409293568 83965 -2402 -12523 -187364
832428310427507584 84254 -2219 -12404 -187364
832428310445721600 84547 -2037 -12243 -187347
832428310463935616 84965 -1838 -12102 -187401
832428310482149632 85468 -1643 -11956 -187400
832428310500363648 85586 -1481 -11812 -187362
832428310518577664 85777 -1397 -11699 -187311
832428310536791680 86006 -1259 -11673 -187290
832428310555005696 86162 -1245 -11631 -187342
832428310573219712 86240 -1168 -11575 -187302
832428310591433728 86302 -1052 -11576 -187332
832428310609647744 86596 -1003 -11470 -187342
832428310627861760 86939 -856 -11360 -187372
832428310646075776 87166 -673 -11255 -187381
832428310664289792 87450 -537 -11205 -187392
832428310682503808 87861 -298 -11014 -187425
832428310700717752 88214 -101 -10903 -187370
832428310718930816 88295 -45 -10753 -187359
832428310737143936 88044 -101 -10851 -187361
832428310755357056 87635 -361 -11055 -187316
832428310773570304 87063 -788 -11288 -187372
832428310791783424 86356 -1192 -11635 -187379
832428310809996544 85561 -1544 -11865 -187329
832428310828209664 84840 -1897 -12127 -187389
832428310846422784 84288 -2234 -12397 -187408
832428310864635904 83871 -2443 -12552 -187395
832428310882849152 83515 -2586 -12644 -187373
832428310901062272 83668 -2532 -12593 -187358
832428310919275392 83996 -2388 -12500 -187405
832428310937488512 84341 -2253 -12362 -187402
832428310955701632 84728 -1945 -12177 -187362
832428310973914752 85170 -1675 -11941 -187390
832428310992128000 85548 -1496 -11816 -187405
832428311010341120 85896 -1350 -11777 -187417
832428311028554240 86087 -1267 -11646 -187418
832428311046767360 86189 -1204 -11677 -187362
832428311064980480 86213 -1181 -11616 -187367
832428311083193600 86296 -1143 -11617 -187342
832428311101406848 86328 -1081 -11620 -187328
832428311119619968 86541 -954 -11503 -187367
832428311137833088 86925 -804 -11328 -187379
832428311156046208 87309 -643 -11211 -187347
832428311174259328 87732 -407 -11037 -187369
832428311192472576 88233 -169 -10886 -187358
832428311210685696 88463 -16 -10814 -187393
832428311228898816 88336 -75 -10823 -187426
832428311247111936 87950 -239 -10979 -187391
832428311265325056 87313 -560 -11224 -187397
832428311283538176 86458 -1052 -11515 -187405
832428311301751424 85779 -1512 -11830 -187397
832428311319964544 84989 -1854 -12075 -187397
832428311338177664 84406 -2138 -12364 -187415
832428311356390872 84035 -2359 -12459 -187392
832428311374604032 83755 -2446 -12597 -187390
832428311392817152 83794 -2465 -12574 -187376
832428311411030272 83955 -2376 -12499 -187401
832428311429243520 84293 -2269 -12415 -187358
832428311447456640 84662 -2039 -12259 -187342
832428311465669760 84910 -1862 -12073 -187323
832428311483882880 85199 -1703 -11997 -187401
832428311502096000 85617 -1500 -11803 -187347
832428311520309120 85918 -1351 -11743 -187330
832428311538522368 86071 -1259 -11699 -187335
832428311556735488 86190 -1229 -11644 -187367
832428311574948608 86302 -1138 -11633 -187387
832428311593161728 86516 -1077 -11569 -187352
832428311611374848 86631 -984 -11495 -187322
832428311629587968 86840 -834 -11395 -187361
832428311647801216 87122 -689 -11301 -187325
832428311666014336 87407 -525 -11251 -187356
832428311684227456 87750 -385 -11047 -187375
832428311702440576 88194 -153 -10880 -187366
832428311720653696 88257 -161 -10876 -187401
832428311738866944 88093 -233 -10944 -187347
832428311757080064 87606 -451 -11061 -187388
832428311775293184 86954 -819 -11327 -187429
832428311793506304 86248 -1245 -11631 -187422
832428311811719424 85437 -1586 -11941 -187407
832428311829932544 84717 -2034 -12263 -187359
832428311848145792 84114 -2259 -12409 -187387
832428311866358912 83780 -2472 -12575 -187390
832428311884572032 83619 -2569 -12580 -187330
832428311902785152 83745 -2528 -12523 -187400
832428311920998272 84115 -2367 -12420 -187367
832428311939211392 84416 -2224 -12309 -187407
832428311957424640 84796 -1951 -12171 -187398
832428311975637760 85250 -1680 -11946 -187398
832428311993850880 85739 -1494 -11830 -187328
832428312012064000 86002 -1342 -11744 -187381
832428312030277120 86066 -1310 -11720 -187403
832428312048490284 86034 -1283 -11654 -187341
832428312066701952 86085 -1268 -11694 -187333
832428312084913664 86264 -1216 -11640 -187391
832428312103125376 86324 -1088 -11617 -187428
832428312121337216 86534 -1009 -11510 -187441
832428312139548928 87010 -805 -11287 -187336
832428312157760640 87418 -577 -11135 -187381
832428312175972352 87822 -426 -11040 -187374
832428312194184192 88261 -66 -10807 -187370
832428312212395904 88453 14 -10758 -187431
832428312230607616 88254 -139 -10854 -187437
832428312248819328 87803 -252 -10977 -187409
832428312267031168 87118 -655 -11270 -187385
832428312285242880 86443 -1077 -11497 -187355
832428312303454592 85775 -1407 -11808 -187393
832428312321666304 84966 -1871 -12100 -187388
832428312339878144 84386 -2132 -12306 -187336
832428312358089856 84017 -2372 -12485 -187389
832428312376301568 83909 -2410 -12495 -187412
832428312394513280 83847 -2431 -12532 -187379
832428312412725120 84012 -2323 -12490 -187370
832428312430936832 84217 -2301 -12410 -187400
832428312449148544 84579 -2091 -12274 -187385
832428312467360256 84843 -1838 -12154 -187366
832428312485572096 85266 -1665 -11984 -187342
832428312503783808 85629 -1474 -11821 -187352
832428312521995520 85888 -1358 -11743 -187346
832428312540207232 85991 -1266 -11663 -187349
832428312558419072 86072 -1235 -11683 -187356
832428312576630784 86329 -1151 -11569 -187386
832428312594842496 86433 -1097 -11541 -187344
832428312613054208 86583 -993 -11504 -187402
832428312631266048 86823 -848 -11409 -187349
832428312649477760 87037 -746 -11356 -187355
832428312667689472 87472 -533 -11175 -187363
832428312685901184 87968 -308 -10996 -187387
832428312704113056 88316 -47 -10825 -187376
832428312722326784 88362 -135 -10824 -187328
832428312740540544 88102 -258 -10910 -187371
832428312758754176 87564 -423 -11043 -187405
832428312776967936 86964 -765 -11287 -187353
832428312795181568 86153 -1243 -11617 -187409
832428312813395328 85342 -1651 -11967 -187376
832428312831609088 84610 -2020 -12174 -187413
832428312849822720 83985 -2306 -12455 -187396
832428312868036480 83722 -2532 -12592 -187395
832428312886250112 83658 -2579 -12597 -187390
832428312904463872 83727 -2518 -12562 -187385
832428312922677632 84042 -2348 -12466 -187347
832428312940891264 84467 -2125 -12344 -187397
832428312959105024 84823 -1941 -12170 -187366
832428312977318656 85288 -1687 -12025 -187417
832428312995532416 85603 -1513 -11875 -187427
832428313013746176 85802 -1369 -11767 -187394
832428313031959808 85871 -1350 -11729 -187353
832428313050173568 85986 -1286 -11725 -187327
832428313068387200 86042 -1238 -11725 -187412
832428313086600960 86277 -1161 -11614 -187335
832428313104814720 86419 -1089 -11600 -187367
832428313123028352 86629 -963 -11478 -187408
832428313141242112 86970 -809 -11388 -187384
832428313159455744 87438 -586 -11157 -187329
832428313177669504 87863 -299 -10964 -187384
832428313195883264 88309 -71 -10830 -187357
832428313214096896 88476 -47 -10779 -187360
832428313232310656 88239 -120 -10851 -187341
832428313250524416 87745 -400 -11048 -187363
832428313268738048 87141 -677 -11222 -187338
832428313286951808 86470 -1043 -11524 -187353
832428313305165440 85630 -1430 -11864 -187370
832428313323379200 84921 -1865 -12075 -187388
832428313341592880 84366 -2191 -12332 -187371
832428313359805952 84097 -2340 -12476 -187311
832428313378019072 83922 -2404 -12549 -187317
832428313396232192 83903 -2421 -12518 -187341
832428313414445440 83959 -2384 -12495 -187349
832428313432658560 84222 -2242 -12398 -187361
832428313450871680 84518 -2072 -12250 -187412
832428313469084800 84965 -1843 -12076 -187329
832428313487297920 85425 -1563 -11920 -187359
832428313505511040 85680 -1463 -11816 -187437
832428313523724288 85948 -1337 -11694 -187360
832428313541937408 86064 -1310 -11643 -187388
832428313560150528 86246 -1171 -11644 -187376
832428313578363648 86356 -1181 -11564 -187400
832428313596576768 86458 -1060 -11495 -187376
832428313614789888 86537 -977 -11490 -187357
832428313633003136 86780 -807 -11364 -187386
832428313651216256 87147 -710 -11267 -187326
832428313669429376 87564 -470 -11112 -187360
832428313687642496 88073 -271 -10936 -187367
832428313705855616 88357 -40 -10817 -187387
832428313724068864 88332 -47 -10867 -187418
832428313742281984 88084 -186 -10899 -187402
832428313760495104 87617 -389 -11071 -187363
832428313778708224 86827 -802 -11414 -187424
832428313796921344 86080 -1226 -11725 -187388
832428313815134464 85233 -1666 -11988 -187328
832428313833347712 84482 -2103 -12313 -187408
832428313851560832 84042 -2334 -12477 -187342
832428313869773952 83782 -2451 -12567 -187396
832428313887987072 83767 -2500 -12599 -187361
832428313906200192 83851 -2454 -12548 -187366
832428313924413312 84170 -2240 -12399 -187323
832428313942626560 84536 -2090 -12268 -187338
832428313960839680 84974 -1853 -12040 -187400
832428313979052800 85374 -1620 -11943 -187369
832428313997265920 85722 -1438 -11841 -187340
832428314015479040 85954 -1330 -11768 -187372
832428314033692160 85952 -1344 -11757 -187378
832428314051905434 86091 -1274 -11746 -187366
832428314070118528 86195 -1178 -11719 -187362
832428314088331648 86263 -1065 -11596 -187326
832428314106544768 86460 -1039 -11530 -187332
832428314124758016 86690 -950 -11470 -187333
832428314142971136 87161 -656 -11192 -187288
832428314161184256 87479 -512 -11079 -187318
832428314179397376 87891 -220 -10911 -187335
832428314197610496 88289 -66 -10793 -187335
832428314215823616 88352 -67 -10835 -187396
832428314234036864 88047 -217 -10920 -187404
832428314252249984 87671 -357 -11052 -187353
832428314270463104 87151 -714 -11248 -187340
832428314288676224 86463 -1129 -11495 -187367
832428314306889344 85634 -1514 -11881 -187354
832428314325102464 84913 -1887 -12097 -187353
832428314343315712 84362 -2184 -12368 -187355
832428314361528832 83965 -2413 -12480 -187403
832428314379741952 83725 -2501 -12573 -187398
832428314397955072 83776 -2481 -12571 -187386
832428314416168192 83893 -2392 -12452 -187375
832428314434381440 84173 -2289 -12391 -187355
832428314452594560 84607 -2077 -12264 -187384
832428314470807680 85105 -1808 -12096 -187340
832428314489020800 85460 -1593 -11964 -187366
832428314507233920 85756 -1444 -11803 -187319
832428314525447040 85902 -1362 -11760 -187351
832428314543660288 86153 -1241 -11658 -187305
832428314561873408 86240 -1201 -11665 -187378
832428314580086528 86269 -1173 -11633 -187341
832428314598299648 86368 -1097 -11594 -187302
832428314616512768 86554 -947 -11490 -187308
832428314634725888 86798 -828 -11377 -187328
832428314652939136 87209 -669 -11270 -187350
832428314671152256 87622 -486 -11090 -187392
832428314689365376 88171 -210 -10822 -187350
832428314707578562 88424 -52 -10760 -187414
832428314725791744 88396 -106 -10795 -187452
832428314744004864 88082 -269 -10985 -187420
832428314762217984 87554 -559 -11136 -187432
832428314780431232 86836 -869 -11343 -187369
832428314798644352 85882 -1311 -11703 -187386
832428314816857472 85020 -1748 -12061 -187379
832428314835070592 84387 -2118 -12306 -187394
832428314853283712 84029 -2299 -12424 -187388
832428314871496832 83771 -2457 -12492 -187371
832428314889710080 83700 -2537 -12555 -187422
832428314907923200 83931 -2405 -12488 -187294
832428314926136320 84275 -2287 -12378 -187332
832428314944349440 84647 -2097 -12241 -187344
832428314962562560 85001 -1860 -12106 -187376
832428314980775680 85306 -1602 -11964 -187358
832428314998988928 85632 -1480 -11890 -187318
832428315017202048 85674 -1445 -11838 -187333
832428315035415168 85940 -1343 -11733 -187363
832428315053628288 86057 -1259 -11682 -187346
832428315071841408 86185 -1201 -11649 -187411
832428315090054528 86263 -1159 -11563 -187395
832428315108267776 86495 -1020 -11573 -187386
832428315126480896 86772 -860 -11429 -187372
832428315144694016 87130 -717 -11362 -187413
832428315162907136 87452 -558 -11122 -187357
832428315181120256 87814 -325 -10982 -187299
832428315199333504 88245 -108 -10794 -187329
832428315217546624 88211 -120 -10818 -187440
832428315235759744 88021 -202 -10891 -187405
832428315253972864 87716 -376 -11047 -187379
832428315272185984 87021 -771 -11351 -187405
832428315290399104 86404 -1063 -11617 -187356
832428315308612352 85587 -1518 -11830 -187353
832428315326825472 84882 -1829 -12126 -187283
832428315345038592 84325 -2162 -12379 -187344
832428315363251682 83867 -2387 -12427 -187400
832428315381464832 83550 -2531 -12586 -187431
832428315399677952 83574 -2545 -12666 -187418
832428315417891072 83840 -2453 -12540 -187390
832428315436104320 84239 -2253 -12366 -187391
832428315454317440 84679 -2033 -12188 -187373
832428315472530560 85107 -1790 -12001 -187424
832428315490743680 85593 -1591 -11869 -187362
832428315508956800 85814 -1405 -11764 -187376
832428315527169920 86061 -1321 -11674 -187369
832428315545383168 86185 -1222 -11626 -187319
832428315563596288 86228 -1195 -11620 -187367
832428315581809408 86209 -1205 -11634 -187341
832428315600022528 86276 -1122 -11612 -187334
832428315618235648 86509 -988 -11543 -187353
832428315636448768 86833 -852 -11425 -187474
832428315654662016 87190 -626 -11267 -187400
832428315672875136 87623 -389 -11020 -187378
832428315691088256 88100 -217 -10859 -187372
832428315709301376 88395 -22 -10736 -187347
832428315727514496 88372 -128 -10796 -187359
832428315745727744 87978 -261 -10952 -187422
832428315763940864 87422 -567 -11141 -187371
832428315782153984 86650 -972 -11434 -187385
832428315800367104 85808 -1443 -11782 -187344
832428315818580224 85050 -1833 -12120 -187367
832428315836793344 84417 -2073 -12267 -187395
832428315855006592 84018 -2301 -12422 -187357
832428315873219712 83776 -2486 -12511 -187344
832428315891432832 83735 -2461 -12531 -187324
832428315909645952 83928 -2430 -12480 -187372
832428315927859072 84218 -2229 -12381 -187415
832428315946072192 84596 -2033 -12221 -187366
832428315964285440 84960 -1871 -12078 -187401
832428315982498560 85323 -1630 -11949 -187341
832428316000711680 85574 -1540 -11858 -187374
832428316018924800 85846 -1432 -11746 -187346
832428316037137920 85977 -1253 -11708 -187375
832428316055351094 86126 -1276 -11707 -187364
832428316073564160 86256 -1186 -11618 -187368
832428316091777280 86424 -1134 -11546 -187369
832428316109990400 86624 -968 -11447 -187401
832428316128203648 86836 -882 -11444 -187381
832428316146416768 87076 -785 -11273 -187313
832428316164629888 87455 -564 -11159 -187346
832428316182843008 87813 -368 -11057 -187376
832428316201056128 88273 -130 -10849 -187346
832428316219269248 88373 -72 -10795 -187392
832428316237482496 88170 -152 -10867 -187350
832428316255695616 87668 -398 -11026 -187362
832428316273908736 87078 -760 -11259 -187385
832428316292121856 86359 -1177 -11575 -187323
832428316310334976 85582 -1460 -11849 -187353
832428316328548096 84841 -1881 -12122 -187340
832428316346761344 84245 -2146 -12323 -187345
832428316364974464 83870 -2391 -12444 -187301
832428316383187584 83601 -2577 -12609 -187355
832428316401400704 83650 -2496 -12593 -187347
832428316419613824 83995 -2383 -12485 -187371
832428316437827072 84418 -2147 -12311 -187330
832428316456040192 84785 -2000 -12250 -187373
832428316474253312 85222 -1727 -12049 -187372
832428316492466432 85603 -1492 -11862 -187411
832428316510679552 86020 -1241 -11665 -187359
832428316528892672 86098 -1175 -11648 -187363
832428316547105920 86116 -1203 -11678 -187378
832428316565319040 86091 -1209 -11665 -187409
832428316583532160 86167 -1238 -11715 -187414
832428316601745280 86287 -1185 -11637 -187419
832428316619958400 86570 -1018 -11491 -187406
832428316638171520 86931 -809 -11359 -187403
832428316656384768 87300 -621 -11225 -187410
832428316674597888 87714 -413 -11048 -187408
832428316692811008 88210 -144 -10883 -187350
832428316711024222 88452 -3 -10769 -187378
832428316729237376 88343 -39 -10879 -187360
832428316747450496 87961 -219 -11001 -187346
832428316765663616 87242 -605 -11242 -187361
832428316783876864 86515 -1057 -11569 -187368
832428316802089984 85737 -1481 -11821 -187360
832428316820303104 85012 -1775 -12062 -187373
832428316838516224 84301 -2147 -12296 -187369
832428316856729344 83958 -2327 -12415 -187407
832428316874942464 83816 -2492 -12517 -187369
832428316893155712 83823 -2519 -12574 -187377
832428316911368832 83948 -2378 -12512 -187376
832428316929581952 84223 -2183 -12370 -187426
832428316947795072 84592 -2009 -12233 -187410
832428316966008192 84943 -1850 -12100 -187346
832428316984221312 85208 -1671 -11998 -187367
832428317002434560 85558 -1477 -11833 -187306
832428317020647680 85858 -1394 -11779 -187351
832428317038860800 86066 -1271 -11725 -187363
832428317057073920 86160 -1160 -11658 -187354
832428317075287040 86193 -1149 -11659 -187307
832428317093500288 86400 -1105 -11567 -187338
832428317111713408 86541 -985 -11472 -187325
832428317129926528 86771 -836 -11372 -187358
832428317148139648 87077 -671 -11295 -187356
832428317166352768 87409 -562 -11180 -187327
832428317184565888 87950 -323 -10986 -187324
832428317202779136 88309 -81 -10742 -187305
832428317220992256 88354 -62 -10761 -187337
832428317239205376 88130 -176 -10908 -187344
832428317257418496 87598 -463 -11077 -187329
832428317275631616 86957 -814 -11370 -187358
832428317293844736 86312 -1142 -11609 -187351
832428317312057984 85460 -1603 -11926 -187370
832428317330271104 84710 -1973 -12213 -187389
832428317348484224 84110 -2273 -12416 -187344
832428317366697350 83714 -2451 -12570 -187397
832428317384910592 83676 -2473 -12527 -187330
832428317403123840 83689 -2452 -12581 -187381
832428317421337216 83991 -2330 -12478 -187370
832428317439550464 84362 -2166 -12330 -187315
832428317457763840 84757 -1928 -12147 -187367
832428317475977088 85222 -1683 -11998 -187372
832428317494190336 85681 -1368 -11811 -187325
832428317512403712 85855 -1255 -11737 -187305
832428317530616960 86023 -1219 -11636 -187359
832428317548830336 86066 -1222 -11651 -187290
832428317567043584 86086 -1192 -11628 -187335
832428317585256832 86248 -1176 -11568 -187325
832428317603470208 86436 -1101 -11545 -187316
832428317621683456 86682 -981 -11505 -187341
832428317639896832 87033 -721 -11305 -187362
832428317658110080 87462 -521 -11103 -187362
832428317676323328 87948 -293 -10945 -187326
832428317694536704 88299 -134 -10770 -187405
832428317712749952 88414 -96 -10735 -187377
832428317730963328 88230 -160 -10833 -187380
832428317749176576 87794 -372 -11026 -187380
832428317767389824 87096 -741 -11316 -187355
832428317785603200 86413 -1061 -11579 -187368
832428317803816448 85786 -1427 -11823 -187343
832428317822029824 85035 -1858 -12173 -187330
832428317840243072 84339 -2143 -12364 -187357
832428317858456320 83910 -2328 -12472 -187324
832428317876669696 83823 -2434 -12516 -187341
832428317894882944 83908 -2393 -12481 -187327
832428317913096320 83940 -2341 -12446 -187335
832428317931309568 84249 -2218 -12347 -187293
832428317949522816 84571 -2027 -12221 -187349
832428317967736192 84982 -1874 -12136 -187349
832428317985949440 85366 -1675 -12004 -187377
832428318004162816 85688 -1432 -11789 -187315
832428318022376064 86036 -1272 -11680 -187306
832428318040589312 86042 -1250 -11739 -187364
832428318058802688 86155 -1211 -11653 -187372
832428318077016006 86325 -1157 -11607 -187340
832428318095229056 86412 -1087 -11620 -187335
832428318113442048 86604 -926 -11495 -187394
832428318131655040 86844 -843 -11423 -187393
832428318149867904 87056 -739 -11319 -187358
832428318168080896 87426 -579 -11139 -187354
832428318186293888 87920 -300 -10974 -187361
832428318204506880 88257 -125 -10810 -187372
832428318222719872 88282 -134 -10869 -187356
832428318240932864 88104 -294 -10936 -187387
832428318259145728 87525 -523 -11096 -187393
832428318277358720 86900 -841 -11350 -187409
832428318295571712 86251 -1202 -11643 -187334
832428318313784704 85429 -1596 -11972 -187366
832428318331997696 84615 -1985 -12320 -187369
832428318350210560 83990 -2324 -12447 -187366
832428318368423552 83735 -2480 -12518 -187376
832428318386636544 83676 -2531 -12553 -187361
832428318404849536 83815 -2546 -12557 -187379
832428318423062528 84079 -2304 -12478 -187400
832428318441275392 84459 -2060 -12320 -187369
832428318459488384 84960 -1858 -12131 -187332
832428318477701376 85331 -1700 -11985 -187342
832428318495914368 85649 -1501 -11852 -187337
832428318514127360 85898 -1378 -11819 -187357
832428318532340352 85957 -1311 -11765 -187402
832428318550553216 86002 -1266 -11755 -187421
832428318568766208 86055 -1244 -11727 -187393
832428318586979200 86226 -1223 -11612 -187356
832428318605192192 86426 -1086 -11466 -187398
832428318623405184 86781 -903 -11341 -187328
832428318641618048 87019 -782 -11271 -187358
832428318659831040 87469 -533 -11082 -187328
832428318678044032 87961 -276 -10894 -187325
832428318696257024 88368 -93 -10743 -187309
832428318714469890 88455 -10 -10747 -187354
832428318732683776 88192 -93 -10830 -187343
832428318750897664 87716 -342 -11029 -187327
832428318769111680 87075 -693 -11324 -187371
832428318787325568 86410 -1022 -11539 -187357
832428318805539584 85615 -1430 -11855 -187378
832428318823753472 84940 -1845 -12086 -187310
832428318841967488 84285 -2215 -12319 -187336
832428318860181376 83995 -2399 -12476 -187338
832428318878395392 83836 -2410 -12580 -187327
832428318896609280 83726 -2419 -12539 -187330
832428318914823296 83831 -2344 -12533 -187367
832428318933037184 84121 -2217 -12449 -187391
832428318951251200 84600 -2018 -12275 -187346
832428318969465088 85015 -1775 -12061 -187363
832428318987679104 85421 -1557 -11852 -187364
832428319005892992 85706 -1429 -11782 -187342
832428319024106880 86046 -1284 -11646 -187334
832428319042320896 86158 -1202 -11639 -187306
832428319060534784 86264 -1190 -11575 -187289
832428319078748800 86338 -1081 -11569 -187355
832428319096962688 86449 -1108 -11491 -187272
832428319115176704 86580 -984 -11503 -187277
832428319133390592 86800 -912 -11375 -187328
832428319151604608 87101 -747 -11282 -187328
832428319169818496 87559 -440 -11093 -187369
832428319188032512 87997 -184 -10902 -187370
832428319206246400 88429 -39 -10806 -187343
832428319224460416 88397 -71 -10793 -187342
832428319242674304 88104 -158 -10906 -187350
832428319260888320 87645 -366 -11030 -187360
832428319279102208 86822 -806 -11340 -187384
832428319297316096 86000 -1261 -11631 -187367
832428319315530112 85155 -1667 -11961 -187335
832428319333744000 84447 -2014 -12260 -187327
832428319351958016 84075 -2259 -12399 -187303
832428319370172004 83811 -2417 -12515 -187360
832428319388384384 83718 -2446 -12548 -187351
832428319406596736 83872 -2346 -12500 -187350
832428319424809088 84177 -2244 -12368 -187303
832428319443021568 84597 -2009 -12246 -187358
832428319461233920 85054 -1820 -12098 -187292
832428319479446272 85337 -1646 -11952 -187338
832428319497658624 85678 -1371 -11761 -187281
832428319515870976 85826 -1397 -11748 -187296
832428319534083456 85950 -1304 -11730 -187294
832428319552295808 86067 -1236 -11695 -187285
832428319570508160 86214 -1172 -11631 -187318
832428319588720512 86264 -1099 -11561 -187316
832428319606932992 86506 -996 -11465 -187309
832428319625145344 86759 -920 -11443 -187360
832428319643357696 87165 -741 -11257 -187328
832428319661570048 87510 -517 -11119 -187364
832428319679782400 87894 -284 -10958 -187356
832428319697994880 88325 -59 -10790 -187345
832428319716207232 88346 -26 -10806 -187352
832428319734419584 88186 -128 -10885 -187300
832428319752631936 87833 -361 -10983 -187334
832428319770844288 87141 -724 -11230 -187315
832428319789056768 86442 -1120 -11532 -187345
832428319807269120 85679 -1476 -11763 -187289
832428319825481472 84975 -1858 -12080 -187296
832428319843693824 84365 -2196 -12297 -187359
832428319861906304 83975 -2378 -12486 -187407
832428319880118656 83772 -2468 -12554 -187363
832428319898331008 83664 -2463 -12627 -187383
832428319916543360 83852 -2344 -12496 -187337
832428319934755712 84224 -2180 -12348 -187311
832428319952968192 84638 -1997 -12210 -187328
832428319971180544 85129 -1745 -12007 -187342
832428319989392896 85514 -1592 -11908 -187397
832428320007605248 85809 -1410 -11745 -187346
832428320025817600 86055 -1280 -11673 -187335
832428320044030080 86174 -1290 -11687 -187384
832428320062242422 86220 -1157 -11611 -187325
832428320080455552 86216 -1117 -11605 -187352
832428320098668672 86304 -1074 -11578 -187324
832428320116881792 86425 -1026 -11523 -187367
832428320135095040 86840 -842 -11376 -187356
832428320153308160 87234 -636 -11166 -187400
832428320171521280 87679 -395 -11071 -187330
832428320189734400 88147 -115 -10840 -187315
832428320207947520 88487 90 -10721 -187329
832428320226160640 88491 -20 -10749 -187332
832428320244373888 88123 -133 -10846 -187347
832428320262587008 87523 -473 -11106 -187346
832428320280800128 86796 -924 -11423 -187368
832428320299013248 85989 -1341 -11724 -187351
832428320317226368 85127 -1756 -12033 -187327
832428320335439488 84505 -2108 -12278 -187319
832428320353652736 84146 -2240 -12393 -187300
832428320371865856 83813 -2446 -12488 -187293
832428320390078976 83729 -2460 -12573 -187370
832428320408292096 83884 -2404 -12503 -187327
832428320426505216 84230 -2261 -12341 -187303
832428320444718464 84558 -2013 -12204 -187335
832428320462931584 84926 -1832 -12117 -187352
832428320481144704 85337 -1649 -11944 -187329
832428320499357824 85614 -1525 -11879 -187346
832428320517570944 85769 -1374 -11807 -187354
832428320535784064 85945 -1252 -11768 -187358
832428320553997312 86093 -1261 -11712 -187405
832428320572210432 86255 -1127 -11617 -187370
832428320590423552 86392 -1104 -11595 -187317
832428320608636672 86590 -1053 -11477 -187345
832428320626849792 86892 -870 -11384 -187329
832428320645062912 87153 -693 -11270 -187360
832428320663276160 87462 -485 -11173 -187334
832428320681489280 87883 -255 -10949 -187344
832428320699702400 88182 -156 -10815 -187339
832428320717915550 88355 -91 -10842 -187305
832428320736128640 88194 -91 -10864 -187351
832428320754341760 87742 -385 -11051 -187345
832428320772554880 87127 -697 -11288 -187336
832428320790768128 86423 -994 -11508 -187288
832428320808981248 85570 -1519 -11902 -187351
832428320827194368 84872 -1849 -12126 -187259
832428320845407488 84358 -2162 -12362 -187320
832428320863620608 84001 -2357 -12481 -187347
832428320881833728 83675 -2491 -12573 -187350
832428320900046976 83632 -2502 -12558 -187330
832428320918260096 83916 -2374 -12513 -187363
832428320936473216 84327 -2183 -12331 -187338
832428320954686336 84772 -1972 -12180 -187339
832428320972899456 85173 -1720 -11999 -187329
832428320991112576 85565 -1508 -11851 -187373
832428321009325824 85842 -1405 -11799 -187404
832428321027538944 86034 -1185 -11654 -187423
832428321045752064 86158 -1158 -11605 -187372
832428321063965184 86197 -1144 -11622 -187339
832428321082178304 86183 -1121 -11607 -187344
832428321100391552 86285 -1129 -11539 -187317
832428321118604672 86569 -998 -11551 -187372
832428321136817792 86899 -799 -11334 -187327
832428321155030912 87265 -585 -11173 -187342
832428321173244032 87722 -387 -11094 -187371
832428321191457152 88147 -100 -10877 -187354
832428321209670400 88563 18 -10770 -187420
832428321227883520 88532 22 -10733 -187407
832428321246096640 88192 -165 -10849 -187329
832428321264309760 87433 -527 -11176 -187372
832428321282522880 86644 -941 -11428 -187353
832428321300736000 85828 -1368 -11736 -187296
832428321318949248 85062 -1781 -12068 -187362
832428321337162368 84460 -2025 -12310 -187363
832428321355375488 84061 -2389 -12468 -187379
832428321373588608 83801 -2503 -12548 -187355
832428321391801820 83769 -2514 -12545 -187298
832428321410014976 83941 -2411 -12476 -187323
832428321428228096 84176 -2256 -12411 -187376
832428321446441216 84637 -2054 -12197 -187341
832428321464654464 85029 -1835 -12085 -187360
832428321482867584 85308 -1695 -11968 -187368
832428321501080704 85588 -1561 -11886 -187354
832428321519293824 85887 -1403 -11779 -187320
832428321537506944 86141 -1241 -11635 -187321
832428321555720064 86148 -1244 -11696 -187374
832428321573933312 86242 -1155 -11656 -187364
832428321592146432 86342 -1150 -11627 -187345
832428321610359552 86573 -926 -11494 -187345
832428321628572672 86762 -913 -11447 -187400
832428321646785792 87128 -712 -11277 -187375
832428321664998912 87431 -505 -11125 -187360
832428321683212160 87813 -384 -10981 -187374
832428321701425280 88266 -80 -10821 -187353
832428321719638400 88363 -13 -10749 -187395
832428321737851520 88142 -113 -10864 -187309
832428321756064640 87672 -399 -11023 -187330
832428321774277888 86962 -770 -11327 -187412
832428321792491008 86212 -1163 -11589 -187393
832428321810704128 85527 -1584 -11888 -187367
832428321828917248 84804 -1907 -12175 -187375
832428321847130368 84257 -2202 -12374 -187337
832428321865343488 83842 -2405 -12507 -187329
832428321883556736 83558 -2554 -12603 -187326
832428321901769856 83661 -2502 -12580 -187341
832428321919982976 83955 -2332 -12441 -187363
832428321938196096 84360 -2193 -12314 -187345
832428321956409216 84717 -1991 -12143 -187369
832428321974622336 85150 -1720 -11951 -187323
832428321992835584 85581 -1541 -11862 -187329
832428322011048704 85936 -1381 -11713 -187367
832428322029261824 86114 -1301 -11635 -187378
832428322047474944 86107 -1268 -11646 -187387
832428322065688064 86180 -1227 -11614 -187363
832428322083901184 86100 -1261 -11675 -187414
832428322102114374 86336 -1138 -11595 -187325
832428322120328448 86644 -998 -11495 -187335
832428322138542464 86935 -830 -11336 -187387
832428322156756480 87305 -638 -11227 -187447
832428322174970496 87732 -422 -11010 -187403
832428322193184512 88268 -113 -10833 -187352
832428322211398528 88425 -5 -10783 -187328
832428322229612544 88236 -81 -10882 -187409
832428322247826560 87846 -253 -10995 -187386
832428322266040576 87246 -649 -11191 -187344
832428322284254592 86364 -1157 -11549 -187352
832428322302468608 85659 -1471 -11786 -187390
832428322320682624 84984 -1863 -12115 -187351
832428322338896640 84429 -2160 -12315 -187309
832428322357110656 83989 -2388 -12505 -187375
832428322375324672 83816 -2490 -12595 -187392
832428322393538688 83801 -2472 -12546 -187394
832428322411752704 84001 -2350 -12467 -187417
832428322429966720 84367 -2224 -12371 -187364
832428322448180736 84627 -2029 -12239 -187375
832428322466394752 84868 -1864 -12135 -187341
832428322484608768 85268 -1689 -12006 -187366
832428322502822784 85666 -1476 -11834 -187394
832428322521036800 85919 -1335 -11696 -187410
832428322539250816 86112 -1273 -11721 -187426
832428322557464832 86205 -1197 -11688 -187368
832428322575678848 86165 -1222 -11674 -187438
832428322593892864 86413 -1119 -11546 -187418
832428322612106880 86653 -929 -11437 -187356
832428322630320896 87005 -824 -11305 -187338
832428322648534912 87179 -725 -11264 -187339
832428322666748928 87413 -583 -11171 -187349
832428322684962944 87927 -308 -10991 -187338
832428322703176960 88294 -61 -10826 -187306
832428322721390976 88379 -13 -10757 -187299
832428322739604878 88144 -147 -10838 -187324
832428322757818880 87609 -451 -11084 -187358
832428322776032896 86951 -810 -11401 -187334
832428322794246912 86270 -1182 -11625 -187350
832428322812460800 85428 -1595 -11896 -187356
832428322830674816 84666 -1971 -12203 -187352
832428322848888832 84113 -2238 -12397 -187372
832428322867102848 83628 -2567 -12653 -187380
832428322885316864 83542 -2652 -12653 -187367
832428322903530752 83671 -2557 -12583 -187438
832428322921744768 83998 -2395 -12454 -187396
832428322939958784 84425 -2091 -12257 -187317
832428322958172800 84778 -1928 -12123 -187398
832428322976386816 85268 -1673 -11995 -187371
832428322994600704 85663 -1453 -11864 -187373
832428323012814720 85947 -1316 -11750 -187377
832428323031028736 86001 -1217 -11660 -187383
832428323049242752 86103 -1221 -11647 -187350
832428323067456768 86107 -1259 -11659 -187357
832428323085670656 86245 -1217 -11691 -187401
832428323103884672 86385 -1157 -11603 -187398
832428323122098688 86658 -1010 -11458 -187406
832428323140312704 86975 -844 -11389 -187359
832428323158526720 87321 -586 -11163 -187275
832428323176740608 87732 -342 -11029 -187335
832428323194954624 88211 -141 -10871 -187447
832428323213168640 88491 29 -10735 -187388
832428323231382656 88293 -52 -10795 -187341
832428323249596672 87755 -357 -11002 -187376
832428323267810560 87146 -702 -11266 -187400
832428323286024576 86493 -1084 -11497 -187290
832428323304238592 85631 -1513 -11831 -187396
832428323322452608 84948 -1881 -12122 -187362
832428323340666624 84345 -2161 -12309 -187406
832428323358880512 83953 -2342 -12466 -187370
832428323377094528 83749 -2469 -12510 -187403
832428323395308524 83730 -2439 -12544 -187398
832428323413520512 83869 -2389 -12532 -187406
832428323431732480 84204 -2267 -12439 -187424
832428323449944448 84538 -2107 -12288 -187411
832428323468156416 84900 -1848 -12142 -187339
832428323486368384 85411 -1679 -12079 -187387
832428323504580352 85780 -1465 -11886 -187350
832428323522792192 85949 -1360 -11772 -187403
832428323541004160 86087 -1271 -11745 -187378
832428323559216128 86165 -1169 -11705 -187385
832428323577428096 86361 -1118 -11579 -187343
832428323595640064 86424 -1084 -11552 -187366
832428323613852032 86556 -1065 -11486 -187400
832428323632064000 86631 -931 -11407 -187398
832428323650275968 86994 -819 -11324 -187426
832428323668487936 87413 -573 -11158 -187393
832428323686699904 87965 -289 -11009 -187396
832428323704911744 88392 -32 -10833 -187378
832428323723123712 88425 -65 -10804 -187394
832428323741335680 88142 -171 -10844 -187352
832428323759547648 87630 -464 -11054 -187350
832428323777759616 86929 -813 -11332 -187400
832428323795971584 86099 -1266 -11659 -187376
832428323814183552 85251 -1699 -12001 -187373
832428323832395520 84502 -2089 -12288 -187420
832428323850607488 83920 -2376 -12517 -187388
832428323868819456 83708 -2504 -12666 -187342
832428323887031296 83650 -2489 -12613 -187375
832428323905243264 83798 -2451 -12529 -187373
832428323923455232 84203 -2352 -12422 -187360
832428323941667200 84426 -2084 -12247 -187369
832428323959879168 84923 -1874 -12104 -187377
832428323978091136 85283 -1715 -11992 -187363
832428323996303104 85640 -1466 -11845 -187355
832428324014515072 85799 -1356 -11754 -187410
832428324032727040 85972 -1270 -11700 -187359
832428324050938922 85997 -1305 -11760 -187379
832428324069151872 86166 -1307 -11707 -187388
832428324087364864 86325 -1121 -11607 -187414
832428324105577984 86481 -1097 -11544 -187375
832428324123790976 86689 -883 -11516 -187379
832428324142004096 87037 -766 -11379 -187403
832428324160217088 87488 -519 -11150 -187358
832428324178430208 87873 -304 -10978 -187368
832428324196643200 88307 -79 -10808 -187353
832428324214856320 88374 -31 -10766 -187420
832428324233069312 88176 -130 -10884 -187379
832428324251282432 87748 -402 -11049 -187406
832428324269495424 87142 -698 -11259 -187328
832428324287708544 86422 -1108 -11584 -187344
832428324305921536 85661 -1484 -11839 -187350
832428324324134656 84905 -1877 -12157 -187401
832428324342347648 84345 -2093 -12317 -187367
832428324360560768 83990 -2376 -12484 -187371
832428324378773760 83804 -2495 -12584 -187335
832428324396986880 83668 -2496 -12586 -187367
832428324415199872 83833 -2394 -12539 -187333
832428324433412864 84110 -2298 -12421 -187383
832428324451625984 84670 -2018 -12239 -187370
832428324469838976 85037 -1841 -12094 -187337
832428324488052096 85364 -1602 -11977 -187405
832428324506265088 85788 -1439 -11795 -187373
832428324524478208 86041 -1350 -11711 -187401
832428324542691200 86202 -1222 -11613 -187380
832428324560904320 86280 -1186 -11616 -187405
832428324579117312 86307 -1184 -11637 -187424
832428324597330432 86402 -1134 -11563 -187402
832428324615543424 86564 -958 -11488 -187326
832428324633756544 86785 -858 -11405 -187361
832428324651969536 87127 -706 -11232 -187349
832428324670182710 87623 -490 -11057 -187380
832428324688395392 88042 -253 -10936 -187335
832428324706608128 88412 -80 -10784 -187378
832428324724820864 88390 -64 -10778 -187336
832428324743033600 88197 -169 -10867 -187344
832428324761246336 87652 -461 -11122 -187341
832428324779459072 86892 -792 -11372 -187354
832428324797671808 86083 -1224 -11658 -187311
832428324815884544 85101 -1662 -11987 -187364
832428324834097280 84399 -2160 -12294 -187332
832428324852310016 83983 -2294 -12479 -187405
832428324870522752 83746 -2456 -12596 -187359
832428324888735360 83738 -2508 -12534 -187389
832428324906948096 83867 -2391 -12473 -187318
832428324925160832 84199 -2241 -12341 -187286
832428324943373568 84591 -2012 -12180 -187338
832428324961586304 84969 -1841 -12074 -187316
832428324979799040 85289 -1610 -11992 -187311
832428324998011776 85598 -1483 -11864 -187413
832428325016224512 85818 -1365 -11772 -187350
832428325034437248 85961 -1340 -11726 -187395
832428325052649984 86067 -1249 -11614 -187337
832428325070862720 86173 -1156 -11608 -187380
832428325089075456 86328 -1072 -11509 -187385
832428325107288192 86532 -894 -11407 -187384
832428325125500928 86764 -907 -11380 -187366
832428325143713664 87162 -651 -11198 -187330
832428325161926400 87507 -488 -11061 -187311
832428325180139136 87859 -291 -10936 -187334
832428325198351872 88265 -39 -10811 -187364
832428325216564608 88311 -35 -10710 -187381
832428325234777344 88175 -85 -10859 -187354
832428325252990080 87801 -306 -10985 -187299
832428325271202816 87109 -713 -11281 -187375
832428325289415424 86345 -1095 -11534 -187373
832428325307628160 85696 -1455 -11839 -187370
832428325325840896 84926 -1907 -12136 -187362
832428325344053722 84366 -2212 -12346 -187352
832428325362267776 83976 -2416 -12493 -187295
832428325380481792 83791 -2491 -12535 -187329
832428325398695680 83699 -2462 -12562 -187340
832428325416909696 83839 -2430 -12544 -187344
832428325435123584 84233 -2221 -12408 -187312
832428325453337600 84728 -2035 -12234 -187291
832428325471551616 85147 -1769 -12089 -187301
832428325489765504 85541 -1505 -11851 -187316
832428325507979520 85883 -1395 -11757 -187305
832428325526193536 86151 -1198 -11664 -187311
832428325544407424 86226 -1161 -11666 -187357
832428325562621440 86297 -1147 -11651 -187330
832428325580835328 86261 -1155 -11662 -187383
832428325599049344 86307 -1112 -11600 -187374
832428325617263360 86445 -1014 -11575 -187403
832428325635477248 86875 -898 -11471 -187344
832428325653691264 87311 -610 -11261 -187299
832428325671905280 87714 -379 -11015 -187334
832428325690119168 88097 -208 -10886 -187347
832428325708333184 88428 -32 -10739 -187350
832428325726547072 88440 6 -10702 -187376
832428325744761088 88214 -115 -10829 -187317
832428325762975104 87540 -475 -11103 -187303
832428325781188992 86814 -901 -11390 -187336
832428325799403008 85911 -1370 -11710 -187388
832428325817616896 85046 -1773 -12084 -187334
832428325835830912 84383 -2073 -12353 -187375
832428325854044928 83993 -2329 -12470 -187383
832428325872258816 83795 -2415 -12551 -187313
832428325890472832 83788 -2460 -12571 -187326
832428325908686848 83883 -2345 -12527 -187350
832428325926900736 84245 -2241 -12367 -187333
832428325945114752 84673 -2022 -12217 -187346
832428325963328640 84945 -1842 -12122 -187391
832428325981542656 85356 -1632 -11927 -187323
832428325999756672 85589 -1502 -11858 -187366
832428326017970510 85826 -1423 -11787 -187401
832428326036183680 86034 -1246 -11641 -187329
832428326054396800 86177 -1220 -11556 -187391
832428326072609920 86191 -1134 -11616 -187381
832428326090823168 86316 -1148 -11608 -187377
832428326109036288 86525 -1029 -11481 -187396
832428326127249408 86880 -881 -11351 -187376
832428326145462528 87101 -677 -11258 -187368
832428326163675648 87520 -452 -11067 -187357
832428326181888768 87916 -267 -10884 -187335
832428326200102016 88300 -99 -10865 -187334
832428326218315136 88379 -78 -10778 -187364
832428326236528256 88157 -132 -10897 -187351
832428326254741376 87732 -426 -11050 -187384
832428326272954496 87112 -715 -11269 -187377
832428326291167616 86336 -1120 -11548 -187389
832428326309380864 85470 -1490 -11854 -187396
832428326327593984 84912 -1884 -12143 -187377
832428326345807104 84274 -2119 -12371 -187378
832428326364020224 83914 -2397 -12482 -187356
832428326382233344 83711 -2551 -12546 -187334
832428326400446592 83626 -2566 -12607 -187335
832428326418659712 83936 -2316 -12449 -187354
832428326436872832 84322 -2160 -12298 -187376
832428326455085952 84716 -1992 -12194 -187361
832428326473299072 85125 -1735 -11988 -187379
832428326491512192 85545 -1517 -11827 -187385
832428326509725440 85899 -1286 -11730 -187364
832428326527938560 86171 -1193 -11609 -187379
832428326546151680 86288 -1221 -11596 -187355
832428326564364800 86212 -1186 -11648 -187357
832428326582577920 86211 -1186 -11654 -187310
832428326600791040 86256 -1183 -11677 -187322
832428326619004288 86507 -1016 -11532 -187301
832428326637217408 86941 -818 -11336 -187323
832428326655430528 87309 -622 -11208 -187378
832428326673643638 87677 -405 -11034 -187333
832428326691857664 88142 -170 -10815 -187332
832428326710071680 88538 75 -10732 -187335
832428326728285696 88417 -24 -10761 -187310
832428326746499584 88032 -199 -10876 -187312
832428326764713600 87355 -577 -11192 -187373
832428326782927616 86589 -975 -11443 -187374
832428326801141632 85819 -1394 -11753 -187335
832428326819355648 85070 -1787 -12077 -187333
832428326837569536 84405 -2076 -12260 -187360
832428326855783552 84011 -2331 -12447 -187326
832428326873997568 83820 -2451 -12501 -187286
832428326892211584 83747 -2453 -12572 -187317
832428326910425600 83966 -2348 -12463 -187356
832428326928639488 84279 -2189 -12315 -187313
832428326946853504 84620 -1995 -12197 -187326
832428326965067520 84920 -1806 -12018 -187330
832428326983281536 85233 -1648 -11937 -187372
832428327001495552 85609 -1593 -11857 -187345
832428327019709440 85795 -1396 -11748 -187334
832428327037923456 86005 -1253 -11685 -187328
832428327056137472 86151 -1242 -11660 -187323
832428327074351488 86195 -1234 -11658 -187418
832428327092565504 86377 -1116 -11541 -187342
832428327110779392 86581 -1006 -11498 -187360
832428327128993408 86899 -830 -11361 -187336
832428327147207424 87179 -698 -11233 -187360
832428327165421440 87460 -532 -11074 -187395
832428327183635456 87936 -335 -10946 -187345
832428327201849344 88274 -58 -10827 -187368
832428327220063360 88378 -49 -10797 -187383
832428327238277376 88188 -157 -10856 -187356
832428327256491392 87688 -403 -11025 -187336
832428327274705280 86979 -770 -11324 -187343
832428327292919296 86285 -1175 -11584 -187302
832428327311133312 85532 -1496 -11926 -187305
832428327329347276 84749 -1910 -12163 -187352
832428327347560448 84186 -2251 -12376 -187320
832428327365773568 83806 -2492 -12551 -187362
832428327383986688 83593 -2574 -12667 -187388
832428327402199936 83706 -2549 -12623 -187394
832428327420413056 83993 -2361 -12461 -187296
832428327438626176 84402 -2068 -12277 -187344
832428327456839296 84830 -1903 -12158 -187369
832428327475052416 85154 -1712 -11998 -187429
832428327493265536 85641 -1434 -11858 -187327
832428327511478784 85907 -1253 -11701 -187360
832428327529691904 86058 -1175 -11639 -187334
832428327547905024 86160 -1182 -11564 -187277
832428327566118144 86158 -1181 -11562 -187274
832428327584331264 86191 -1185 -11631 -187306
832428327602544384 86333 -1051 -11511 -187311
832428327620757632 86621 -963 -11446 -187390
832428327638970752 87059 -759 -11304 -187349
832428327657183872 87412 -576 -11155 -187364
832428327675396992 87742 -337 -10960 -187341
832428327693610112 88224 -63 -10746 -187310
832428327711823360 88439 1 -10744 -187332
832428327730036480 88378 19 -10770 -187358
832428327748249600 87932 -154 -10947 -187347
832428327766462720 87241 -598 -11165 -187342
832428327784675840 86523 -1043 -11476 -187358
832428327802888960 85760 -1438 -11787 -187396
832428327821102208 85049 -1816 -12034 -187381
832428327839315328 84442 -2138 -12237 -187321
832428327857528448 83987 -2384 -12480 -187368
832428327875741568 83773 -2520 -12575 -187413
832428327893954688 83776 -2448 -12483 -187396
832428327912167808 83961 -2384 -12475 -187329
832428327930381056 84261 -2173 -12334 -187427
832428327948594176 84630 -1967 -12205 -187329
832428327966807296 84908 -1837 -12111 -187349
832428327985020416 85292 -1713 -12009 -187349
832428328003233546 85725 -1447 -11855 -187277
832428328021446272 85989 -1334 -11788 -187302
832428328039659008 86087 -1271 -11730 -187324
832428328057871744 86183 -1207 -11613 -187347
832428328076084480 86263 -1148 -11603 -187369
832428328094297216 86425 -1083 -11558 -187319
832428328112509952 86589 -963 -11453 -187364
832428328130722688 86804 -816 -11378 -187383
832428328148935424 87156 -685 -11293 -187339
832428328167148160 87370 -487 -11169 -187413
832428328185360896 87849 -250 -10950 -187326
832428328203573632 88284 -95 -10847 -187380
832428328221786240 88388 -34 -10775 -187406
832428328239998976 88163 -115 -10852 -187341
832428328258211712 87635 -381 -11049 -187370
832428328276424448 87029 -753 -11324 -187354
832428328294637184 86227 -1163 -11643 -187386
832428328312849920 85471 -1517 -11897 -187355
832428328331062656 84634 -1893 -12224 -187366
832428328349275392 84107 -2275 -12420 -187392
832428328367488128 83742 -2426 -12557 -187320
832428328385700864 83641 -2545 -12646 -187393
832428328403913600 83756 -2509 -12597 -187427
832428328422126336 83983 -2297 -12483 -187377
832428328440339072 84422 -2160 -12326 -187386
832428328458551808 84771 -1955 -12157 -187396
832428328476764544 85246 -1709 -12024 -187349
832428328494977280 85604 -1534 -11846 -187384
832428328513190016 85866 -1354 -11736 -187379
832428328531402752 86015 -1263 -11692 -187375
832428328549615488 86026 -1271 -11714 -187386
832428328567828224 86103 -1250 -11667 -187373
832428328586040960 86201 -1180 -11617 -187395
832428328604253696 86430 -1072 -11543 -187384
832428328622466304 86705 -980 -11457 -187352
832428328640679040 87010 -728 -11352 -187381
832428328658891776 87372 -576 -11161 -187344
832428328677104556 87793 -379 -11008 -187383
832428328695318016 88228 -133 -10866 -187339
832428328713531520 88459 -7 -10779 -187387
832428328731745152 88288 -106 -10852 -187370
832428328749958656 87714 -388 -11095 -187398
832428328768172288 87140 -748 -11261 -187402
832428328786385792 86384 -1127 -11589 -187449
832428328804599296 85639 -1522 -11849 -187388
832428328822812928 84913 -1883 -12107 -187397
832428328841026432 84351 -2154 -12346 -187428
832428328859240064 84006 -2330 -12460 -187373
832428328877453568 83743 -2398 -12553 -187435
832428328895667072 83828 -2389 -12512 -187356
832428328913880704 83959 -2375 -12499 -187362
832428328932094208 84216 -2278 -12349 -187424
832428328950307840 84505 -2064 -12255 -187367
832428328968521344 84964 -1890 -12129 -187326
832428328986734848 85385 -1656 -12007 -187355
832428329004948480 85643 -1484 -11835 -187354
832428329023161984 85931 -1352 -11759 -187411
832428329041375616 86087 -1168 -11608 -187346
832428329059589120 86183 -1199 -11628 -187356
832428329077802624 86255 -1182 -11595 -187394
832428329096016256 86309 -1097 -11574 -187395
832428329114229760 86519 -1009 -11511 -187364
832428329132443392 86781 -883 -11470 -187373
832428329150656896 87043 -755 -11295 -187376
832428329168870400 87485 -517 -11144 -187397
832428329187084032 87921 -281 -11055 -187451
832428329205297536 88277 -101 -10844 -187418
832428329223511168 88273 -143 -10857 -187375
832428329241724672 88020 -241 -10992 -187404
832428329259938176 87548 -450 -11101 -187347
832428329278151808 86872 -801 -11305 -187339
832428329296365312 86094 -1233 -11678 -187373
832428329314578944 85297 -1669 -11992 -187362
832428329332792448 84554 -2061 -12257 -187336
832428329351006086 83972 -2352 -12504 -187361
832428329369219200 83751 -2462 -12544 -187336
832428329387432320 83671 -2506 -12583 -187259
832428329405645440 83748 -2468 -12592 -187373
832428329423858688 84032 -2277 -12434 -187342
832428329442071808 84474 -2023 -12240 -187350
832428329460284928 85002 -1842 -12101 -187339
832428329478498048 85349 -1679 -11941 -187346
832428329496711168 85746 -1422 -11807 -187347
832428329514924288 85887 -1321 -11759 -187411
832428329533137536 85988 -1219 -11681 -187422
832428329551350656 86002 -1297 -11761 -187381
832428329569563776 86219 -1215 -11611 -187328
832428329587776896 86305 -1166 -11644 -187379
832428329605990016 86465 -1065 -11531 -187340
832428329624203136 86752 -893 -11413 -187313
832428329642416384 87037 -738 -11295 -187400
832428329660629504 87497 -475 -11139 -187378
832428329678842624 87856 -254 -10977 -187388
832428329697055744 88232 -82 -10838 -187421
832428329715268864 88401 30 -10811 -187375
832428329733482112 88159 -94 -10884 -187392
832428329751695232 87787 -323 -11049 -187356
832428329769908352 87190 -676 -11232 -187374
832428329788121472 86436 -1091 -11555 -187349
832428329806334592 85656 -1414 -11769 -187292
832428329824547712 84916 -1813 -12103 -187356
832428329842760960 84347 -2178 -12276 -187363
832428329860974080 83977 -2345 -12421 -187401
832428329879187200 83820 -2448 -12510 -187351
832428329897400320 83744 -2496 -12555 -187378
832428329915613440 83870 -2457 -12515 -187377
832428329933826560 84145 -2314 -12412 -187396
832428329952039788 84586 -2042 -12229 -187349
832428329970252160 85008 -1837 -12115 -187404
832428329988464512 85437 -1641 -11941 -187330
832428330006676736 85740 -1434 -11811 -187362
832428330024889088 86018 -1302 -11718 -187380
832428330043101312 86235 -1200 -11620 -187381
832428330061313664 86246 -1113 -11599 -187318
832428330079525888 86272 -1138 -11558 -187362
832428330097738240 86342 -1112 -11534 -187357
832428330115950464 86501 -1054 -11499 -187357
832428330134162816 86715 -920 -11496 -187405
832428330152375168 87045 -764 -11316 -187426
832428330170587392 87516 -499 -11166 -187369
832428330188799744 87992 -256 -10945 -187417
832428330207011968 88357 -82 -10787 -187422
832428330225224320 88374 -93 -10770 -187325
832428330243436544 88135 -165 -10845 -187373
832428330261648896 87587 -431 -11137 -187345
832428330279861120 86800 -840 -11430 -187310
832428330298073472 85930 -1284 -11735 -187325
832428330316285696 85154 -1756 -12024 -187327
832428330334498048 84463 -2143 -12345 -187341
832428330352710400 84038 -2333 -12494 -187342
832428330370922624 83763 -2463 -12557 -187407
832428330389134976 83700 -2468 -12540 -187325
832428330407347200 83846 -2384 -12552 -187364
832428330425559552 84142 -2242 -12392 -187403
832428330443771776 84624 -2025 -12206 -187364
832428330461984128 84932 -1856 -12068 -187389
832428330480196352 85359 -1644 -11956 -187317
832428330498408704 85576 -1536 -11923 -187381
832428330516621056 85757 -1369 -11854 -187420
832428330534833280 86015 -1286 -11711 -187381
832428330553045632 86179 -1233 -11664 -187359
832428330571257856 86217 -1225 -11670 -187342
832428330589470208 86328 -1148 -11668 -187379
832428330607682390 86491 -1064 -11574 -187434
832428330625897344 86777 -936 -11475 -187371
832428330644112256 87156 -678 -11281 -187411
832428330662327168 87472 -510 -11178 -187375
832428330680542208 87750 -287 -10998 -187338
832428330698757120 88200 -156 -10897 -187417
832428330716972032 88254 -86 -10858 -187389
832428330735186944 88139 -133 -10889 -187394
832428330753401856 87789 -345 -11052 -187350
832428330771616896 87080 -703 -11283 -187387
832428330789831808 86361 -1143 -11585 -187384
832428330808046720 85553 -1569 -11848 -187368
832428330826261632 84943 -1943 -12145 -187359
832428330844476544 84388 -2142 -12359 -187397
832428330862691584 83993 -2349 -12475 -187364
832428330880906496 83761 -2512 -12570 -187341
832428330899121408 83676 -2553 -12599 -187390
832428330917336320 83859 -2430 -12479 -187372
832428330935551232 84294 -2131 -12328 -187375
832428330953766272 84704 -1996 -12208 -187378
832428330971981184 85101 -1750 -12022 -187340
832428330990196096 85450 -1534 -11861 -187379
832428331008411008 85779 -1387 -11738 -187435
832428331026625920 86023 -1260 -11686 -187408
832428331044840960 86189 -1181 -11572 -187346
832428331063055872 86206 -1188 -11598 -187367
832428331081270784 86251 -1184 -11620 -187413
832428331099485696 86258 -1126 -11644 -187362
832428331117700608 86412 -1037 -11523 -187334
832428331135915648 86805 -790 -11381 -187344
832428331154130560 87184 -690 -11275 -187412
832428331172345472 87608 -439 -11088 -187412
832428331190560384 88051 -199 -10926 -187377
832428331208775296 88398 0 -10846 -187363
832428331226990270 88456 -8 -10774 -187344
832428331245203328 88161 -134 -10862 -187345
832428331263416448 87532 -567 -11151 -187358
832428331281629568 86648 -975 -11477 -187379
832428331299842816 85797 -1406 -11773 -187299
832428331318055936 85046 -1799 -12062 -187370
832428331336269056 84446 -2148 -12289 -187400
832428331354482176 84042 -2369 -12424 -187369
832428331372695296 83756 -2462 -12555 -187388
832428331390908416 83655 -2517 -12610 -187364
832428331409121664 83850 -2447 -12547 -187374
832428331427334784 84272 -2189 -12380 -187338
832428331445547904 84575 -2019 -12278 -187386
832428331463761024 84971 -1874 -12098 -187312
832428331481974144 85261 -1693 -12011 -187340
832428331500187264 85521 -1573 -11899 -187359
832428331518400512 85822 -1429 -11837 -187384
832428331536613632 86019 -1306 -11729 -187367
832428331554826752 86162 -1210 -11641 -187333
832428331573039872 86276 -1152 -11614 -187337
832428331591252992 86319 -1116 -11601 -187375
832428331609466240 86502 -1031 -11479 -187344
832428331627679360 86854 -871 -11396 -187379
832428331645892480 87187 -702 -11247 -187363
832428331664105600 87496 -532 -11120 -187357
832428331682318720 87822 -334 -11010 -187403
832428331700531840 88148 -135 -10869 -187376
832428331718745088 88349 -60 -10822 -187393
832428331736958208 88185 -144 -10882 -187375
832428331755171328 87731 -357 -11030 -187328
832428331773384448 87044 -711 -11312 -187341
832428331791597568 86346 -1141 -11561 -187326
832428331809810688 85633 -1541 -11830 -187350
832428331828023936 84826 -1921 -12156 -187388
832428331846237056 84272 -2193 -12377 -187385
832428331864450176 83860 -2418 -12489 -187377
832428331882663398 83618 -2598 -12641 -187390
832428331900877440 83582 -2566 -12643 -187379
832428331919091456 83875 -2389 -12572 -187385
832428331937305472 84439 -2138 -12311 -187344
832428331955519616 84788 -1934 -12172 -187389
832428331973733632 85138 -1801 -12029 -187360
832428331991947648 85509 -1628 -11906 -187379
832428332010161664 85877 -1375 -11704 -187357
832428332028375680 86056 -1299 -11654 -187366
832428332046589824 86206 -1262 -11609 -187334
832428332064803840 86185 -1267 -11634 -187330
832428332083017856 86243 -1222 -11609 -187356
832428332101231872 86321 -1155 -11595 -187408
832428332119445888 86621 -1014 -11455 -187352
832428332137659904 86967 -792 -11343 -187354
832428332155874048 87275 -623 -11258 -187396
832428332174088064 87698 -485 -11065 -187360
832428332192302080 88042 -187 -10912 -187391
832428332210516096 88398 -42 -10767 -187386
832428332228730112 88390 -136 -10804 -187396
832428332246944256 87958 -270 -11005 -187363
832428332265158272 87322 -648 -11236 -187358
832428332283372288 86490 -1065 -11552 -187350
832428332301586304 85675 -1456 -11812 -187337
832428332319800320 84906 -1881 -12107 -187352
832428332338014464 84413 -2148 -12297 -187373
832428332356228480 84047 -2325 -12472 -187363
832428332374442496 83813 -2448 -12497 -187390
832428332392656512 83694 -2530 -12572 -187391
832428332410870528 83897 -2368 -12538 -187358
832428332429084544 84250 -2131 -12345 -187323
832428332447298688 84614 -2008 -12257 -187361
832428332465512704 84973 -1798 -12079 -187330
832428332483726720 85254 -1630 -11936 -187352
832428332501940760 85612 -1519 -11868 -187349
832428332520153088 85880 -1337 -11760 -187385
832428332538365440 86037 -1301 -11700 -187398
832428332556577920 86150 -1235 -11675 -187368
832428332574790272 86256 -1123 -11615 -187344
832428332593002624 86410 -1171 -11548 -187363
832428332611215104 86553 -998 -11437 -187372
832428332629427456 86832 -841 -11346 -187327
832428332647639936 87192 -657 -11240 -187312
832428332665852288 87484 -512 -11138 -187322
832428332684064640 87838 -305 -10997 -187349
832428332702277120 88261 -118 -10901 -187338
832428332720489472 88437 -42 -10797 -187346
832428332738701824 88165 -150 -10890 -187374
832428332756914304 87634 -404 -11101 -187425
832428332775126656 86967 -776 -11315 -187386
832428332793339008 86288 -1154 -11584 -187377
832428332811551488 85496 -1547 -11898 -187360
832428332829763840 84745 -1943 -12176 -187373
832428332847976320 84208 -2190 -12402 -187335
832428332866188672 83765 -2454 -12550 -187440
832428332884401024 83598 -2555 -12634 -187368
832428332902613504 83691 -2496 -12632 -187397
832428332920825856 84007 -2348 -12493 -187324
832428332939038208 84333 -2149 -12357 -187391
832428332957250688 84789 -1978 -12174 -187370
832428332975463040 85180 -1754 -12041 -187336
832428332993675520 85562 -1572 -11918 -187391
832428333011887872 85862 -1400 -11743 -187418
832428333030100224 85988 -1317 -11700 -187476
832428333048312704 86123 -1199 -11683 -187408
832428333066525056 86081 -1187 -11656 -187346
832428333084737408 86108 -1293 -11688 -187340
832428333102949888 86328 -1195 -11629 -187410
832428333121162240 86629 -1028 -11492 -187378
832428333139374592 86925 -833 -11387 -187445
832428333157587072 87344 -579 -11173 -187347
832428333175799424 87736 -395 -11008 -187349
832428333194011904 88146 -96 -10855 -187376
832428333212224312 88424 9 -10739 -187353
832428333230437376 88260 -56 -10798 -187373
832428333248650496 87895 -284 -10951 -187375
832428333266863616 87125 -671 -11244 -187435
832428333285076736 86374 -1129 -11567 -187421
832428333303289728 85656 -1447 -11846 -187380
832428333321502848 84958 -1854 -12093 -187359
832428333339715968 84361 -2149 -12387 -187368
832428333357929088 83968 -2396 -12531 -187380
832428333376142208 83744 -2502 -12526 -187388
832428333394355328 83743 -2507 -12503 -187356
832428333412568320 83928 -2402 -12471 -187351
832428333430781440 84187 -2260 -12384 -187354
832428333448994560 84476 -2027 -12260 -187408
832428333467207680 84801 -1917 -12123 -187342
832428333485420800 85298 -1619 -11906 -187308
832428333503633920 85670 -1433 -11814 -187383
832428333521846912 85904 -1351 -11760 -187377
832428333540060032 86058 -1267 -11639 -187355
832428333558273152 86121 -1215 -11628 -187345
832428333576486272 86250 -1163 -11590 -187420
832428333594699392 86417 -1040 -11574 -187343
832428333612912512 86594 -973 -11496 -187339
832428333631125504 86913 -816 -11377 -187343
832428333649338624 87134 -721 -11299 -187371
832428333667551744 87421 -536 -11186 -187385
832428333685764864 87871 -276 -11028 -187360
832428333703977984 88285 -101 -10850 -187361
832428333722191104 88347 -74 -10830 -187408
832428333740404096 88115 -134 -10878 -187359
832428333758617216 87596 -501 -11123 -187397
832428333776830336 86952 -809 -11346 -187432
832428333795043456 86175 -1168 -11591 -187457
832428333813256576 85367 -1645 -11915 -187411
832428333831469696 84624 -2052 -12249 -187374
832428333849682774 84006 -2335 -12458 -187366
832428333867895552 83759 -2528 -12591 -187349
832428333886108288 83683 -2556 -12605 -187358
832428333904321152 83666 -2564 -12554 -187356
832428333922533888 84004 -2334 -12469 -187424
832428333940746624 84447 -2136 -12328 -187372
832428333958959360 84818 -1931 -12181 -187362
832428333977172224 85220 -1620 -11936 -187334
832428333995384960 85623 -1493 -11839 -187361
832428334013597696 85896 -1300 -11773 -187387
832428334031810432 86068 -1250 -11742 -187338
832428334050023296 86038 -1252 -11670 -187362
832428334068236032 86129 -1197 -11651 -187313
832428334086448768 86214 -1163 -11647 -187341
832428334104661632 86458 -1001 -11525 -187387
832428334122874368 86740 -905 -11418 -187338
832428334141087104 87096 -637 -11267 -187321
832428334159299840 87440 -578 -11172 -187389
832428334177512704 87919 -374 -11019 -187371
832428334195725440 88308 -85 -10851 -187339
832428334213938176 88435 -14 -10720 -187386
832428334232151040 88267 -145 -10838 -187354
832428334250363776 87787 -334 -11019 -187359
832428334268576512 87111 -702 -11265 -187333
832428334286789248 86419 -994 -11559 -187321
832428334305002112 85694 -1421 -11831 -187335
832428334323214848 85037 -1765 -12043 -187327
832428334341427584 84418 -2137 -12303 -187364
832428334359640320 83991 -2398 -12443 -187344
832428334377853184 83821 -2435 -12552 -187386
832428334396065920 83756 -2437 -12566 -187388
832428334414278656 83891 -2434 -12461 -187389
832428334432491520 84197 -2264 -12388 -187343
832428334450704256 84531 -2062 -12276 -187318
832428334468916992 84857 -1906 -12147 -187381
832428334487129728 85369 -1616 -11921 -187321
832428334505342592 85756 -1438 -11819 -187378
832428334523555312 86078 -1313 -11755 -187363
832428334541768832 86114 -1243 -11657 -187345
832428334559982336 86265 -1170 -11635 -187349
832428334578195840 86373 -1139 -11597 -187351
832428334596409344 86412 -1070 -11547 -187347
832428334614622848 86536 -1055 -11526 -187326
832428334632836352 86790 -887 -11353 -187397
832428334651049856 87092 -653 -11307 -187392
832428334669263488 87544 -482 -11163 -187357
832428334687476992 88012 -248 -10981 -187372
832428334705690496 88373 -20 -10843 -187419
832428334723904000 88390 -39 -10794 -187424
832428334742117504 88129 -164 -10877 -187322
832428334760331008 87621 -545 -11099 -187349
832428334778544512 86883 -867 -11452 -187355
832428334796758016 86058 -1214 -11659 -187371
832428334814971520 85173 -1667 -12027 -187439
832428334833185024 84480 -2099 -12271 -187394
832428334851398528 84024 -2324 -12439 -187380
832428334869612032 83710 -2431 -12587 -187417
832428334887825536 83661 -2552 -12635 -187368
832428334906039040 83794 -2482 -12540 -187360
832428334924252672 84059 -2350 -12471 -187374
832428334942466176 84467 -2109 -12255 -187355
832428334960679680 84887 -1899 -12138 -187356
832428334978893184 85275 -1684 -12008 -187360
832428334997106688 85598 -1512 -11863 -187421
832428335015320192 85826 -1364 -11799 -187398
832428335033533696 85931 -1348 -11752 -187358
832428335051747200 86121 -1297 -11694 -187393
832428335069960704 86105 -1204 -11642 -187419
832428335088174208 86257 -1182 -11591 -187411
832428335106387712 86436 -1100 -11552 -187383
832428335124601216 86734 -910 -11464 -187367
832428335142814720 87036 -715 -11302 -187342
832428335161028352 87486 -517 -11149 -187403
832428335179241856 87869 -266 -10949 -187379
832428335197455314 88215 -92 -10815 -187385
832428335215668480 88308 -52 -10797 -187384
832428335233881600 88110 -183 -10873 -187335
832428335252094720 87737 -431 -10936 -187333
832428335270307968 87167 -714 -11267 -187397
832428335288521088 86367 -1124 -11550 -187361
832428335306734208 85595 -1566 -11904 -187376
832428335324947328 84928 -1875 -12113 -187406
832428335343160448 84432 -2159 -12330 -187360
832428335361373568 83983 -2333 -12462 -187347
832428335379586816 83759 -2496 -12562 -187402
832428335397799936 83714 -2492 -12575 -187400
832428335416013056 83869 -2402 -12483 -187401
832428335434226176 84166 -2257 -12405 -187355
832428335452439296 84636 -1996 -12190 -187354
832428335470652416 84988 -1792 -12122 -187349
832428335488865664 85397 -1596 -11902 -187391
832428335507078784 85739 -1387 -11767 -187347
832428335525291904 85967 -1265 -11757 -187369
832428335543505024 86129 -1147 -11693 -187390
832428335561718144 86269 -1187 -11627 -187361
832428335579931392 86286 -1102 -11574 -187347
832428335598144512 86277 -1107 -11573 -187357
832428335616357632 86455 -1065 -11481 -187361
832428335634570752 86730 -913 -11462 -187369
832428335652783872 87191 -721 -11310 -187378
832428335670996992 87558 -485 -11154 -187366
832428335689210240 88129 -234 -10933 -187334
832428335707423360 88397 -82 -10788 -187396
832428335725636480 88383 -34 -10789 -187370
832428335743849600 88124 -200 -10908 -187359
832428335762062720 87535 -469 -11102 -187336
832428335780275840 86733 -890 -11386 -187300
832428335798489088 85948 -1322 -11669 -187294
832428335816702208 85112 -1705 -12064 -187335
832428335834915328 84552 -2074 -12314 -187347
832428335853128442 84076 -2312 -12465 -187309
832428335871341568 83776 -2494 -12578 -187386
832428335889554688 83726 -2472 -12582 -187344
832428335907767808 83874 -2449 -12528 -187350
832428335925981056 84197 -2301 -12439 -187389
832428335944194176 84651 -2008 -12224 -187428
832428335962407296 84990 -1822 -12069 -187395
832428335980620416 85384 -1595 -11953 -187337
832428335998833536 85624 -1461 -11885 -187411
832428336017046656 85803 -1419 -11784 -187359
832428336035259904 86027 -1266 -11713 -187337
832428336053473024 86162 -1228 -11568 -187384
832428336071686144 86204 -1236 -11626 -187336
832428336089899264 86282 -1182 -11589 -187334
832428336108112384 86496 -1096 -11506 -187359
832428336126325504 86872 -876 -11378 -187367
832428336144538752 87173 -683 -11237 -187370
832428336162751872 87505 -495 -11082 -187402
832428336180964992 87891 -244 -10918 -187299
832428336199178112 88262 -73 -10831 -187299
832428336217391232 88266 -123 -10888 -187342
832428336235604480 88241 -112 -10879 -187342
832428336253817600 87757 -364 -11098 -187371
832428336272030720 87087 -757 -11298 -187394
832428336290243840 86278 -1061 -11588 -187335
832428336308456960 85570 -1484 -11874 -187370
832428336326670080 84840 -1841 -12156 -187386
832428336344883328 84340 -2139 -12297 -187342
832428336363096448 83808 -2391 -12524 -187371
832428336381309568 83667 -2472 -12534 -187304
832428336399522688 83619 -2528 -12603 -187324
832428336417735808 83817 -2426 -12517 -187343
832428336435948928 84269 -2264 -12415 -187356
832428336454162176 84709 -1991 -12251 -187398
832428336472375296 85121 -1754 -12058 -187318
832428336490588416 85457 -1581 -11880 -187357
832428336508801536 85802 -1364 -11790 -187368
832428336527014712 86047 -1237 -11679 -187364
832428336545228544 86177 -1135 -11695 -187386
832428336563442432 86213 -1136 -11686 -187375
832428336581656320 86174 -1116 -11634 -187386
832428336599870208 86290 -1122 -11595 -187355
832428336618084224 86472 -1031 -11546 -187349
832428336636298112 86809 -876 -11335 -187340
832428336654512000 87200 -641 -11192 -187345
832428336672725888 87617 -424 -11142 -187350
832428336690939776 88153 -152 -10947 -187342
832428336709153664 88402 34 -10730 -187316
832428336727367552 88444 57 -10706 -187319
832428336745581440 88069 -181 -10873 -187367
832428336763795456 87479 -505 -11106 -187350
832428336782009344 86577 -916 -11429 -187363
832428336800223232 85770 -1352 -11730 -187307
832428336818437120 85060 -1797 -12042 -187356
832428336836651008 84468 -2068 -12274 -187333
832428336854864896 84084 -2317 -12456 -187309
832428336873078784 83859 -2400 -12539 -187296
832428336891292800 83754 -2471 -12575 -187315
832428336909506688 83880 -2392 -12556 -187422
832428336927720576 84328 -2180 -12414 -187377
832428336945934464 84627 -2022 -12210 -187291
832428336964148352 84962 -1848 -12122 -187384
832428336982362240 85269 -1653 -11986 -187377
832428337000576128 85537 -1543 -11908 -187366
832428337018790016 85822 -1371 -11748 -187369
832428337037004032 86002 -1254 -11676 -187380
832428337055217920 86100 -1248 -11656 -187359
832428337073431808 86237 -1170 -11593 -187374
832428337091645696 86294 -1129 -11562 -187333
832428337109859584 86555 -1024 -11489 -187391
832428337128073472 86866 -851 -11421 -187318
832428337146287360 87170 -713 -11289 -187366
832428337164501376 87510 -556 -11174 -187356
832428337182715264 87809 -417 -11003 -187355
832428337200929152 88113 -164 -10874 -187339
832428337219143110 88354 -60 -10818 -187347
832428337237356416 88153 -236 -10918 -187360
832428337255569664 87786 -382 -11022 -187307
832428337273782784 87012 -798 -11298 -187359
832428337291996032 86319 -1168 -11659 -187355
832428337310209152 85512 -1567 -11879 -187374
832428337328422400 84790 -1898 -12175 -187395
832428337346635520 84279 -2137 -12255 -187315
832428337364848768 83870 -2377 -12531 -187400
832428337383061888 83649 -2523 -12625 -187410
832428337401275136 83632 -2554 -12620 -187378
832428337419488256 83888 -2416 -12519 -187345
832428337437701504 84314 -2206 -12340 -187354
832428337455914624 84733 -1988 -12230 -187401
832428337474127872 85165 -1743 -12002 -187383
832428337492340992 85490 -1615 -11862 -187390
832428337510554240 85895 -1370 -11712 -187386
832428337528767360 86139 -1246 -11667 -187352
832428337546980608 86135 -1199 -11643 -187364
832428337565193728 86144 -1238 -11656 -187392
832428337583406976 86148 -1207 -11648 -187405
832428337601620096 86315 -1100 -11558 -187366
832428337619833344 86605 -996 -11456 -187375
832428337638046464 86991 -765 -11336 -187396
832428337656259712 87311 -575 -11209 -187400
832428337674472832 87742 -384 -11016 -187363
832428337692686080 88156 -212 -10896 -187379
832428337710899200 88471 -5 -10714 -187317
832428337729112448 88388 -24 -10753 -187352
832428337747325568 88017 -229 -10936 -187351
832428337765538816 87259 -574 -11218 -187369
832428337783751936 86489 -1019 -11560 -187428
832428337801965184 85790 -1397 -11787 -187393
832428337820178432 84998 -1803 -12047 -187372
832428337838391552 84396 -2089 -12279 -187371
832428337856604620 83990 -2333 -12464 -187391
832428337874818304 83769 -2406 -12540 -187357
832428337893031936 83739 -2477 -12565 -187366
832428337911245440 83874 -2380 -12458 -187350
832428337929459072 84262 -2189 -12385 -187322
832428337947672704 84592 -2030 -12256 -187389
832428337965886336 84963 -1729 -12070 -187298
832428337984099840 85203 -1621 -11973 -187408
832428338002313472 85626 -1445 -11861 -187378
832428338020527104 85872 -1368 -11832 -187369
832428338038740608 86034 -1273 -11707 -187403
832428338056954240 86161 -1308 -11678 -187330
832428338075167872 86157 -1227 -11562 -187349
832428338093381504 86350 -1095 -11517 -187368
832428338111595008 86498 -1006 -11538 -187407
832428338129808640 86858 -914 -11401 -187389
832428338148022272 87146 -710 -11255 -187376
832428338166235904 87466 -560 -11156 -187376
832428338184449408 87774 -321 -11035 -187388
832428338202663040 88264 -101 -10859 -187363
832428338220876672 88300 -98 -10911 -187412
832428338239090176 88149 -140 -10901 -187350
832428338257303808 87663 -435 -11055 -187339
832428338275517440 86906 -852 -11373 -187377
832428338293731072 86148 -1201 -11576 -187386
832428338311944576 85374 -1626 -11912 -187380
832428338330158208 84724 -2010 -12221 -187404
832428338348371840 84175 -2338 -12454 -187361
832428338366585344 83658 -2541 -12627 -187372
832428338384798976 83593 -2622 -12672 -187373
832428338403012608 83659 -2554 -12562 -187410
832428338421226240 84058 -2313 -12434 -187411
832428338439439744 84323 -2122 -12353 -187387
832428338457653376 84798 -1946 -12146 -187374
832428338475867008 85149 -1729 -11973 -187397
832428338494080512 85611 -1491 -11896 -187458
832428338512294144 85835 -1341 -11807 -187403
832428338530507676 85972 -1301 -11770 -187453
832428338548721408 86091 -1239 -11623 -187320
832428338566935168 86012 -1270 -11687 -187339
832428338585149056 86021 -1202 -11629 -187355
832428338603362816 86329 -1115 -11613 -187361
832428338621576704 86645 -938 -11473 -187301
832428338639790464 86931 -809 -11379 -187355
832428338658004352 87335 -604 -11186 -187317
832428338676218112 87710 -437 -11045 -187349
832428338694432000 88273 -117 -10824 -187349
832428338712645760 88461 -18 -10801 -187368
832428338730859648 88269 -105 -10866 -187418
832428338749073408 87889 -330 -10980 -187387
832428338767287296 87143 -676 -11282 -187346
832428338785501056 86453 -1097 -11526 -187288
832428338803714944 85683 -1474 -11817 -187392
832428338821928704 84972 -1807 -12087 -187363
832428338840142592 84415 -2118 -12308 -187394
832428338858356352 84012 -2406 -12467 -187351
832428338876570240 83828 -2464 -12532 -187345
832428338894784000 83808 -2500 -12507 -187334
832428338912997760 83957 -2323 -12453 -187343
832428338931211648 84254 -2194 -12392 -187395
832428338949425408 84569 -2103 -12314 -187346
832428338967639296 84861 -1906 -12140 -187389
832428338985853056 85236 -1680 -11926 -187378
832428339004066944 85611 -1456 -11762 -187406
832428339022280704 85910 -1303 -11682 -187394
832428339040494592 86090 -1222 -11651 -187344
832428339058708352 86123 -1262 -11619 -187345
832428339076922240 86237 -1194 -11613 -187346
832428339095136000 86391 -1141 -11542 -187373
832428339113349888 86579 -1033 -11533 -187411
832428339131563648 86807 -969 -11491 -187384
832428339149777536 87122 -690 -11345 -187326
832428339167991296 87468 -512 -11164 -187402
832428339186205218 87860 -340 -11021 -187407
832428339204418816 88278 -90 -10791 -187397
832428339222632448 88353 -59 -10770 -187407
832428339240846208 88136 -187 -10866 -187349
832428339259059840 87656 -459 -11125 -187397
832428339277273600 86955 -815 -11383 -187400
832428339295487232 86157 -1227 -11710 -187378
832428339313700992 85434 -1614 -11923 -187344
832428339331914624 84596 -1956 -12214 -187336
832428339350128384 84023 -2325 -12427 -187335
832428339368342016 83745 -2456 -12601 -187334
832428339386555776 83629 -2497 -12623 -187393
832428339404769408 83704 -2449 -12633 -187403
832428339422983168 84042 -2401 -12497 -187420
832428339441196800 84419 -2113 -12307 -187394
832428339459410560 84783 -1894 -12196 -187392
832428339477624192 85247 -1675 -11970 -187372
832428339495837952 85592 -1518 -11898 -187394
832428339514051584 85794 -1453 -11839 -187393
832428339532265344 86050 -1253 -11720 -187374
832428339550478976 86009 -1253 -11688 -187378
832428339568692736 86109 -1233 -11658 -187412
832428339586906368 86231 -1176 -11593 -187351
832428339605120128 86354 -1080 -11594 -187384
832428339623333760 86701 -941 -11507 -187388
832428339641547520 87024 -750 -11383 -187384
832428339659761152 87445 -578 -11225 -187451
832428339677974784 87832 -353 -10992 -187417
832428339696188544 88299 -220 -10857 -187437
832428339714402176 88397 -39 -10796 -187410
832428339732615936 88205 -130 -10856 -187411
832428339750829568 87713 -362 -11018 -187411
832428339769043328 87033 -770 -11292 -187430
832428339787256960 86330 -1136 -11571 -187408
832428339805470720 85585 -1491 -11855 -187369
832428339823684352 84933 -1825 -12076 -187346
832428339841898182 84366 -2169 -12388 -187422
832428339860111360 83995 -2362 -12482 -187465
832428339878324480 83819 -2502 -12539 -187395
832428339896537600 83760 -2475 -12554 -187437
832428339914750848 83859 -2413 -12476 -187435
832428339932963968 84121 -2291 -12428 -187439
832428339951177088 84469 -2124 -12315 -187435
832428339969390208 84917 -1903 -12180 -187358
832428339987603328 85315 -1686 -11970 -187385
832428340005816448 85691 -1479 -11890 -187427
832428340024029696 85944 -1399 -11693 -187411
832428340042242816 86150 -1334 -11645 -187395
832428340060455936 86285 -1246 -11608 -187412
832428340078669056 86325 -1160 -11622 -187402
832428340096882176 86345 -1175 -11613 -187411
832428340115095296 86496 -1033 -11543 -187379
832428340133308544 86736 -882 -11463 -187346
832428340151521664 87112 -712 -11253 -187354
832428340169734784 87531 -476 -11062 -187358
832428340187947904 88029 -212 -10938 -187356
832428340206161024 88403 -28 -10726 -187346
832428340224374272 88421 -33 -10737 -187395
832428340242587392 88084 -248 -10933 -187397
832428340260800512 87584 -491 -11104 -187355
832428340279013632 86850 -816 -11378 -187375
832428340297226752 86110 -1276 -11703 -187362
832428340315439872 85193 -1713 -12026 -187392
832428340333653120 84491 -2051 -12253 -187401
832428340351866240 84010 -2313 -12473 -187406
832428340370079360 83762 -2484 -12580 -187357
832428340388292480 83647 -2557 -12591 -187341
832428340406505600 83822 -2481 -12582 -187379
832428340424718720 84101 -2309 -12463 -187354
832428340442931968 84523 -2067 -12284 -187321
832428340461145088 84961 -1825 -12070 -187344
832428340479358208 85330 -1593 -11944 -187266
832428340497571328 85606 -1481 -11814 -187316
832428340515784452 85845 -1361 -11813 -187304
832428340533996800 85921 -1300 -11754 -187335
832428340552209152 86092 -1261 -11692 -187349
832428340570421504 86171 -1216 -11620 -187364
832428340588633856 86285 -1127 -11539 -187313
832428340606846208 86475 -1017 -11503 -187290
832428340625058560 86729 -910 -11406 -187334
832428340643270912 87133 -698 -11317 -187376
832428340661483264 87518 -468 -11124 -187374
832428340679695616 87861 -244 -10970 -187394
832428340697908096 88213 -61 -10827 -187378
832428340716120448 88327 -27 -10755 -187368
832428340734332800 88063 -139 -10936 -187408
832428340752545152 87690 -424 -11078 -187429
832428340770757504 87115 -704 -11253 -187396
832428340788969856 86363 -1075 -11571 -187362
832428340807182208 85587 -1478 -11830 -187353
832428340825394560 84877 -1891 -12140 -187319
832428340843606912 84374 -2169 -12399 -187324
832428340861819264 84000 -2382 -12530 -187400
832428340880031616 83757 -2525 -12646 -187336
832428340898243968 83654 -2579 -12595 -187424
832428340916456320 83788 -2457 -12570 -187379
832428340934668672 84158 -2267 -12426 -187374
832428340952881024 84607 -2026 -12221 -187313
832428340971093376 85044 -1875 -12106 -187374
832428340989305856 85397 -1673 -11959 -187371
832428341007518208 85766 -1400 -11759 -187361
832428341025730560 85961 -1289 -11728 -187342
832428341043942912 86143 -1203 -11636 -187334
832428341062155264 86221 -1192 -11619 -187371
832428341080367616 86171 -1176 -11626 -187369
832428341098579968 86288 -1141 -11583 -187357
832428341116792320 86519 -1047 -11548 -187362
832428341135004672 86816 -865 -11417 -187393
832428341153217024 87165 -677 -11316 -187394
832428341171429376 87572 -468 -11059 -187340
832428341189641728 88036 -311 -10954 -187383
832428341207854080 88397 -93 -10812 -187428
832428341226066480 88353 -93 -10792 -187363
832428341244277504 88128 -199 -10828 -187387
832428341262488576 87503 -502 -11121 -187396
832428341280699648 86705 -903 -11402 -187406
832428341298910592 85847 -1371 -11749 -187394
832428341317121664 84997 -1799 -12101 -187405
832428341335332736 84325 -2091 -12345 -187446
832428341353543808 83975 -2284 -12524 -187362
832428341371754880 83720 -2528 -12622 -187346
832428341389965952 83678 -2547 -12603 -187322
832428341408176896 83795 -2507 -12608 -187379
832428341426387968 84156 -2349 -12443 -187409
832428341444599040 84539 -2090 -12265 -187388
832428341462810112 84915 -1853 -12100 -187414
832428341481021184 85232 -1695 -11989 -187403
832428341499232256 85613 -1470 -11844 -187318
832428341517443200 85727 -1417 -11802 -187333
832428341535654272 85932 -1327 -11751 -187355
832428341553865344 86068 -1266 -11708 -187392
832428341572076416 86176 -1193 -11617 -187370
832428341590287488 86209 -1208 -11596 -187424
832428341608498560 86424 -1077 -11559 -187397
832428341626709504 86851 -846 -11423 -187383
832428341644920576 87157 -672 -11325 -187381
832428341663131648 87578 -493 -11155 -187344
832428341681342720 87945 -279 -11005 -187325
832428341699553792 88189 -133 -10884 -187392
832428341717764736 88216 -83 -10850 -187364
832428341735975808 88150 -195 -10888 -187414
832428341754186880 87696 -442 -11011 -187379
832428341772397952 86958 -802 -11276 -187383
832428341790609024 86310 -1176 -11546 -187363
832428341808820096 85521 -1550 -11852 -187354
832428341827031040 84886 -1875 -12095 -187317
832428341845242112 84362 -2206 -12349 -187363
832428341863453220 83944 -2426 -12458 -187380
832428341881662848 83706 -2528 -12592 -187413
832428341899872512 83675 -2480 -12616 -187345
832428341918082176 83868 -2410 -12592 -187376
832428341936291712 84187 -2245 -12421 -187403
832428341954501376 84707 -1958 -12198 -187375
832428341972711040 85065 -1792 -12044 -187436
832428341990920704 85452 -1582 -11897 -187393
832428342009130368 85767 -1438 -11789 -187354
832428342027339904 86084 -1309 -11673 -187391
832428342045549568 86208 -1203 -11619 -187400
832428342063759232 86229 -1186 -11547 -187385
832428342081968896 86149 -1209 -11660 -187407
832428342100178432 86231 -1149 -11580 -187339
832428342118388096 86531 -967 -11509 -187373
832428342136597760 86839 -892 -11397 -187404
832428342154807424 87259 -690 -11192 -187334
832428342173017088 87677 -459 -11072 -187392
832428342191226624 88068 -208 -10905 -187418
832428342209436288 88360 -61 -10769 -187313
832428342227645952 88334 -75 -10806 -187359
832428342245855616 88074 -219 -10894 -187342
832428342264065280 87378 -602 -11198 -187406
832428342282274816 86653 -989 -11448 -187381
832428342300484480 85822 -1461 -11845 -187391
832428342318694144 85016 -1767 -12069 -187352
832428342336903808 84425 -2147 -12317 -187360
832428342355113472 84056 -2387 -12439 -187394
832428342373323008 83796 -2516 -12540 -187378
832428342391532672 83629 -2516 -12607 -187379
832428342409742336 83854 -2501 -12568 -187404
832428342427952000 84223 -2249 -12367 -187421
832428342446161536 84605 -2089 -12223 -187362
832428342464371200 84945 -1863 -12142 -187428
832428342482580864 85314 -1682 -12027 -187367
832428342500790528 85554 -1558 -11871 -187359
832428342519000192 85881 -1403 -11760 -187296
832428342537209788 86008 -1304 -11711 -187316
832428342555420928 86043 -1252 -11762 -187340
832428342573632128 86140 -1169 -11676 -187333
832428342591843328 86291 -1091 -11610 -187367
832428342610054528 86548 -1038 -11518 -187391
832428342628265728 86861 -875 -11441 -187400
832428342646476928 87163 -716 -11301 -187414
832428342664688128 87442 -529 -11156 -187434
832428342682899328 87812 -338 -10992 -187410
832428342701110528 88145 -151 -10861 -187340
832428342719321728 88320 -97 -10810 -187373
832428342737532928 88181 -119 -10902 -187352
832428342755744128 87706 -405 -11044 -187325
832428342773955328 86970 -789 -11306 -187347
832428342792166528 86252 -1155 -11636 -187372
832428342810377728 85529 -1557 -11859 -187396
832428342828588928 84886 -1938 -12110 -187372
832428342846800256 84340 -2174 -12349 -187417
832428342865011456 83852 -2388 -12562 -187466
832428342883222656 83594 -2533 -12620 -187354
832428342901433856 83586 -2573 -12640 -187374
832428342919645056 83954 -2372 -12483 -187339
832428342937856256 84366 -2216 -12383 -187395
832428342956067456 84735 -1975 -12233 -187414
832428342974278656 85145 -1826 -12045 -187363
832428342992489856 85481 -1633 -11926 -187411
832428343010701056 85883 -1483 -11806 -187366
832428343028912256 86074 -1311 -11684 -187370
832428343047123456 86197 -1193 -11585 -187393
832428343065334656 86170 -1184 -11632 -187407
832428343083545856 86139 -1215 -11661 -187422
832428343101757056 86340 -1117 -11580 -187388
832428343119968256 86586 -1033 -11462 -187404
832428343138179456 86941 -841 -11338 -187362
832428343156390656 87303 -660 -11235 -187384
832428343174601856 87703 -418 -11028 -187418
832428343192813056 88089 -207 -10837 -187390
832428343211024344 88425 -43 -10762 -187436
832428343229237504 88322 -82 -10774 -187387
832428343247450624 87898 -282 -10938 -187413
832428343265663744 87282 -623 -11228 -187353
832428343283876992 86473 -1055 -11488 -187308
832428343302090112 85712 -1510 -11829 -187341
832428343320303232 85019 -1847 -12103 -187342
832428343338516352 84434 -2169 -12288 -187359
832428343356729472 84010 -2395 -12480 -187358
832428343374942592 83787 -2483 -12554 -187361
832428343393155840 83781 -2541 -12543 -187358
832428343411368960 83863 -2421 -12490 -187371
832428343429582080 84224 -2287 -12305 -187329
832428343447795200 84555 -2144 -12230 -187374
832428343466008320 84945 -1905 -12118 -187329
832428343484221440 85196 -1774 -11953 -187328
832428343502434688 85554 -1618 -11881 -187389
832428343520647808 85890 -1397 -11725 -187369
832428343538860928 86000 -1287 -11656 -187392
832428343557074048 86111 -1229 -11670 -187380
832428343575287168 86307 -1131 -11601 -187370
832428343593500416 86419 -1048 -11566 -187360
832428343611713536 86561 -1001 -11520 -187342
832428343629926656 86880 -825 -11406 -187332
832428343648139776 87160 -737 -11274 -187387
832428343666352896 87471 -493 -11100 -187354
832428343684566016 87766 -344 -10993 -187351
832428343702779264 88187 -198 -10850 -187381
832428343720992384 88385 -127 -10810 -187352
832428343739205504 88157 -184 -10931 -187356
832428343757418624 87590 -442 -11102 -187396
832428343775631744 86972 -756 -11352 -187385
832428343793844864 86271 -1219 -11576 -187390
832428343812058112 85473 -1583 -11887 -187373
832428343830271232 84720 -1997 -12160 -187386
832428343848484352 84155 -2298 -12344 -187388
832428343866697472 83782 -2480 -12511 -187339
832428343884910592 83597 -2538 -12622 -187362
832428343903123712 83679 -2486 -12604 -187370
832428343921336832 84036 -2331 -12480 -187340
832428343939550080 84430 -2085 -12298 -187349
832428343957763200 84842 -1896 -12140 -187341
832428343975976320 85213 -1660 -11991 -187383
832428343994189440 85638 -1509 -11889 -187379
832428344012402560 85909 -1378 -11776 -187358
832428344030615680 86092 -1258 -11730 -187301
832428344048828928 86104 -1218 -11679 -187345
832428344067042048 86054 -1227 -11687 -187342
832428344085255168 86114 -1223 -11714 -187343
832428344103468288 86296 -1150 -11609 -187371
832428344121681408 86537 -983 -11463 -187380
832428344139894528 86948 -747 -11353 -187307
832428344158107776 87330 -540 -11211 -187324
832428344176320896 87778 -335 -11036 -187372
832428344194534016 88203 -109 -10902 -187352
832428344212747136 88438 24 -10771 -187394
832428344230960256 88296 -84 -10820 -187380
832428344249173504 87831 -347 -10987 -187358
832428344267386624 87160 -614 -11225 -187337
832428344285599744 86446 -1056 -11508 -187410
832428344303812864 85647 -1509 -11823 -187341
832428344322025984 84824 -1939 -12152 -187437
832428344340239104 84376 -2167 -12374 -187358
832428344358452352 84021 -2361 -12487 -187329
832428344376665472 83838 -2438 -12579 -187398
832428344394878592 83834 -2433 -12533 -187367
832428344413091712 83998 -2426 -12484 -187406
832428344431304832 84316 -2180 -12382 -187322
832428344449517952 84599 -2007 -12238 -187332
832428344467731200 84939 -1872 -12096 -187327
832428344485944320 85376 -1601 -11952 -187329
832428344504157440 85745 -1498 -11822 -187387
832428344522370600 85969 -1319 -11747 -187336
832428344540582912 86122 -1255 -11616 -187347
832428344558795264 86141 -1206 -11636 -187388
832428344577007744 86350 -1122 -11586 -187370
832428344595220096 86395 -1053 -11533 -187378
832428344613432448 86516 -944 -11463 -187377
832428344631644928 86799 -791 -11377 -187396
832428344649857280 87107 -751 -11337 -187419
832428344668069760 87509 -482 -11125 -187349
832428344686282112 87926 -332 -10992 -187377
832428344704494464 88343 -98 -10868 -187397
832428344722706944 88454 -72 -10795 -187397
832428344740919296 88201 -187 -10940 -187349
832428344759131648 87604 -534 -11133 -187410
832428344777344128 86925 -739 -11293 -187400
832428344795556480 86140 -1218 -11626 -187427
832428344813768832 85355 -1688 -11917 -187367
832428344831981312 84612 -2072 -12243 -187366
832428344850193664 83977 -2317 -12461 -187411
832428344868406144 83652 -2503 -12621 -187345
832428344886618496 83603 -2575 -12627 -187373
832428344904830848 83731 -2526 -12580 -187359
832428344923043328 84061 -2349 -12479 -187389
832428344941255680 84483 -2120 -12345 -187355
832428344959468032 84860 -1949 -12172 -187383
832428344977680512 85275 -1675 -11999 -187368
832428344995892864 85613 -1431 -11898 -187369
832428345014105344 85882 -1340 -11807 -187417
832428345032317696 85930 -1341 -11752 -187452
832428345050530048 86009 -1282 -11699 -187374
832428345068742528 86136 -1292 -11710 -187419
832428345086954880 86196 -1203 -11674 -187440
832428345105167232 86409 -1061 -11560 -187376
832428345123379712 86690 -964 -11498 -187381
832428345141592064 87020 -737 -11325 -187329
832428345159804416 87484 -524 -11179 -187376
832428345178016896 87940 -352 -11038 -187360
832428345196229248 88393 -125 -10902 -187330
832428345214441728 88405 -27 -10841 -187335
832428345232654152 88222 -153 -10886 -187374
832428345250867328 87725 -450 -11065 -187386
832428345269080448 87129 -708 -11301 -187350
832428345287293568 86365 -1127 -11580 -187380
832428345305506688 85589 -1527 -11890 -187404
832428345323719680 84896 -1908 -12125 -187386
832428345341932800 84325 -2164 -12347 -187390
832428345360145920 84032 -2293 -12450 -187392
832428345378359040 83842 -2399 -12573 -187388
832428345396572160 83772 -2497 -12590 -187398
832428345414785280 83859 -2443 -12567 -187455
832428345432998272 84183 -2286 -12437 -187405
832428345451211392 84564 -2085 -12244 -187357
832428345469424512 84968 -1848 -12108 -187351
832428345487637632 85390 -1682 -11984 -187375
832428345505850752 85689 -1455 -11866 -187362
832428345524063872 85990 -1287 -11697 -187360
832428345542276864 86154 -1261 -11644 -187351
832428345560489984 86251 -1189 -11640 -187392
832428345578703104 86269 -1161 -11616 -187350
832428345596916224 86384 -1138 -11603 -187403
832428345615129344 86560 -1068 -11545 -187405
832428345633342464 86790 -917 -11409 -187385
832428345651555456 87136 -670 -11248 -187336
832428345669768576 87609 -468 -11086 -187388
832428345687981696 87994 -195 -10935 -187380
832428345706194816 88372 -78 -10780 -187347
832428345724407936 88402 -49 -10727 -187350
832428345742621056 88122 -191 -10929 -187387
832428345760834048 87582 -431 -11146 -187355
832428345779047168 86808 -858 -11464 -187372
832428345797260288 86025 -1292 -11715 -187324
832428345815473408 85112 -1736 -12022 -187368
832428345833686528 84436 -2093 -12323 -187391
832428345851899648 83905 -2331 -12478 -187371
832428345870112614 83715 -2555 -12571 -187352
832428345888325760 83699 -2479 -12605 -187448
832428345906538880 83816 -2445 -12558 -187359
832428345924752000 84120 -2269 -12446 -187342
832428345942965248 84511 -2071 -12264 -187387
832428345961178368 84910 -1850 -12108 -187431
832428345979391488 85324 -1658 -11989 -187409
832428345997604608 85562 -1542 -11841 -187403
832428346015817728 85814 -1361 -11773 -187401
832428346034030848 85900 -1346 -11773 -187384
832428346052244096 86066 -1312 -11733 -187383
832428346070457216 86183 -1238 -11632 -187346
832428346088670336 86296 -1113 -11583 -187358
832428346106883456 86501 -1083 -11561 -187377
832428346125096576 86687 -947 -11447 -187430
832428346143309696 87215 -725 -11289 -187374
832428346161522944 87544 -503 -11168 -187352
832428346179736064 87910 -331 -10999 -187346
832428346197949184 88344 -55 -10833 -187302
832428346216162304 88414 -8 -10748 -187351
832428346234375424 88199 -200 -10882 -187326
832428346252588672 87810 -421 -11045 -187343
832428346270801792 87143 -763 -11290 -187377
832428346289014912 86415 -1174 -11551 -187332
832428346307228032 85605 -1569 -11862 -187343
832428346325441152 84834 -1952 -12176 -187337
832428346343654272 84399 -2124 -12270 -187343
832428346361867520 84026 -2368 -12428 -187366
832428346380080640 83737 -2496 -12562 -187323
832428346398293760 83710 -2446 -12500 -187346
832428346416506880 83781 -2473 -12481 -187384
832428346434720000 84196 -2255 -12396 -187376
832428346452933120 84619 -2016 -12274 -187402
832428346471146368 85039 -1790 -12171 -187407
832428346489359488 85443 -1533 -11977 -187362
832428346507572608 85818 -1413 -11747 -187397
832428346525785728 86047 -1235 -11660 -187374
832428346543998884 86254 -1187 -11624 -187346
832428346562211968 86229 -1170 -11628 -187363
832428346580425088 86238 -1184 -11619 -187396
832428346598638208 86308 -1137 -11582 -187370
832428346616851456 86407 -1092 -11565 -187391
832428346635064576 86735 -899 -11417 -187400
832428346653277696 87106 -660 -11281 -187423
832428346671490816 87582 -473 -11132 -187422
832428346689703936 88057 -263 -10910 -187390
832428346707917056 88357 -90 -10807 -187379
832428346726130304 88371 -67 -10747 -187347
832428346744343424 88149 -154 -10914 -187354
832428346762556544 87520 -463 -11111 -187339
832428346780769664 86765 -879 -11421 -187368
832428346798982784 85813 -1386 -11744 -187404
832428346817195904 84969 -1826 -12078 -187378
832428346835409152 84396 -2162 -12309 -187340
832428346853622272 84001 -2354 -12511 -187414
832428346871835392 83770 -2457 -12541 -187361
832428346890048512 83668 -2496 -12585 -187354
832428346908261632 83855 -2397 -12501 -187339
832428346926474880 84213 -2234 -12404 -187330
832428346944688000 84667 -2042 -12241 -187335
832428346962901120 85007 -1850 -12089 -187347
832428346981114240 85305 -1621 -11933 -187362
832428346999327360 85548 -1538 -11879 -187330
832428347017540480 85681 -1529 -11869 -187393
832428347035753728 85935 -1377 -11734 -187341
832428347053966848 86023 -1292 -11730 -187343
832428347072179968 86087 -1276 -11705 -187449
832428347090393088 86223 -1194 -11669 -187366
832428347108606208 86444 -1108 -11600 -187404
832428347126819328 86849 -932 -11499 -187406
832428347145032576 87150 -715 -11308 -187352
832428347163245696 87509 -488 -11191 -187377
832428347181458816 87843 -310 -11023 -187306
832428347199671936 88305 -108 -10890 -187330
832428347217885154 88309 -140 -10829 -187353
832428347236099328 88152 -193 -10857 -187396
832428347254313472 87755 -389 -11013 -187361
832428347272527616 87057 -783 -11258 -187376
832428347290741760 86269 -1168 -11556 -187351
832428347308955904 85605 -1562 -11868 -187389
832428347327170176 84938 -1841 -12110 -187345
832428347345384320 84379 -2124 -12294 -187379
832428347363598464 84022 -2319 -12476 -187362
832428347381812608 83779 -2438 -12526 -187309
832428347400026752 83700 -2502 -12579 -187324
832428347418240896 83928 -2427 -12504 -187354
832428347436455040 84284 -2162 -12367 -187294
832428347454669184 84725 -2008 -12151 -187292
832428347472883456 85081 -1694 -12008 -187334
832428347491097600 85402 -1551 -11934 -187378
832428347509311744 85753 -1372 -11838 -187336
832428347527525888 86091 -1201 -11662 -187291
832428347545740032 86167 -1175 -11622 -187349
832428347563954176 86223 -1200 -11631 -187351
832428347582168320 86230 -1163 -11651 -187356
832428347600382464 86342 -1141 -11598 -187332
832428347618596736 86512 -1043 -11491 -187389
832428347636810880 86916 -858 -11355 -187307
832428347655025024 87265 -653 -11247 -187357
832428347673239168 87692 -434 -11049 -187358
832428347691453312 88174 -220 -10953 -187400
832428347709667456 88455 -29 -10799 -187352
832428347727881600 88435 43 -10780 -187355
832428347746095744 88083 -170 -10945 -187358
832428347764310016 87454 -472 -11119 -187383
832428347782524160 86595 -907 -11464 -187366
832428347800738304 85736 -1387 -11819 -187385
832428347818952448 85024 -1818 -12092 -187420
832428347837166592 84391 -2152 -12290 -187373
832428347855380736 83958 -2382 -12480 -187405
832428347873594904 83747 -2508 -12617 -187378
832428347891808640 83729 -2524 -12604 -187372
832428347910022400 83879 -2351 -12520 -187359
832428347928236288 84244 -2240 -12383 -187381
832428347946450048 84576 -2045 -12237 -187369
832428347964663808 84857 -1846 -12147 -187406
832428347982877696 85246 -1694 -11985 -187353
832428348001091456 85466 -1555 -11883 -187353
832428348019305216 85752 -1432 -11780 -187343
832428348037519104 86035 -1279 -11691 -187358
832428348055732864 86157 -1207 -11660 -187398
832428348073946624 86243 -1171 -11614 -187409
832428348092160512 86319 -1086 -11596 -187338
832428348110374272 86554 -953 -11471 -187356
832428348128588032 86930 -813 -11317 -187353
832428348146801920 87098 -772 -11232 -187347
832428348165015680 87417 -503 -11148 -187361
832428348183229440 87771 -348 -11010 -187369
832428348201443328 88238 -81 -10841 -187312
832428348219657088 88339 21 -10809 -187360
832428348237870848 88185 -122 -10867 -187343
832428348256084736 87719 -433 -11064 -187355
832428348274298496 86979 -785 -11293 -187395
832428348292512256 86261 -1125 -11542 -187329
832428348310726144 85523 -1560 -11933 -187386
832428348328939904 84787 -1905 -12176 -187408
832428348347153664 84203 -2201 -12456 -187367
832428348365367552 83865 -2393 -12516 -187414
832428348383581312 83644 -2563 -12604 -187381
832428348401795072 83619 -2518 -12648 -187426
832428348420008960 83905 -2430 -12551 -187344
832428348438222720 84299 -2173 -12359 -187420
832428348456436480 84786 -1994 -12153 -187391
832428348474650368 85162 -1772 -12038 -187396
832428348492864128 85488 -1569 -11936 -187398
832428348511077888 85887 -1335 -11818 -187318
832428348529291776 86089 -1226 -11692 -187309
832428348547505588 86103 -1173 -11646 -187366
832428348565719424 86126 -1164 -11666 -187357
832428348583933312 86104 -1218 -11661 -187373
832428348602147200 86271 -1132 -11576 -187344
832428348620361088 86544 -990 -11418 -187304
832428348638575104 86944 -894 -11313 -187368
832428348656788992 87331 -676 -11158 -187363
832428348675002880 87747 -384 -11018 -187341
832428348693216768 88273 -208 -10878 -187346
832428348711430656 88516 -6 -10707 -187295
832428348729644544 88346 -74 -10821 -187360
832428348747858432 87923 -322 -10943 -187388
832428348766072320 87263 -625 -11216 -187406
832428348784286336 86461 -1064 -11506 -187359
832428348802500224 85676 -1463 -11780 -187351
832428348820714112 85012 -1824 -12112 -187320
832428348838928000 84318 -2153 -12309 -187401
832428348857141888 84068 -2316 -12444 -187358
832428348875355776 83790 -2490 -12579 -187327
832428348893569664 83818 -2440 -12592 -187305
832428348911783680 83966 -2412 -12550 -187312
832428348929997568 84269 -2165 -12359 -187303
832428348948211456 84677 -2014 -12208 -187310
832428348966425344 84914 -1806 -12109 -187332
832428348984639232 85220 -1656 -11997 -187268
832428349002853120 85603 -1518 -11865 -187359
832428349021067008 85897 -1344 -11747 -187354
832428349039280896 86058 -1271 -11685 -187389
832428349057494912 86197 -1174 -11628 -187349
832428349075708800 86236 -1121 -11582 -187352
832428349093922688 86359 -1114 -11554 -187374
832428349112136576 86626 -964 -11497 -187380
832428349130350464 86927 -790 -11349 -187353
832428349148564352 87153 -703 -11282 -187354
832428349166778240 87439 -532 -11165 -187361
832428349184992256 87886 -315 -11056 -187346
832428349203206144 88334 -77 -10778 -187334
832428349221420032 88391 -14 -10733 -187360
832428349239633986 88191 -154 -10817 -187312
832428349257848064 87737 -448 -11032 -187347
832428349276062080 87006 -790 -11360 -187312
832428349294276224 86222 -1215 -11603 -187368
832428349312490240 85428 -1631 -11842 -187364
832428349330704256 84693 -1957 -12149 -187367
832428349348918400 84173 -2229 -12341 -187394
832428349367132416 83767 -2446 -12521 -187388
832428349385346432 83552 -2540 -12631 -187400
832428349403560576 83663 -2462 -12569 -187327
832428349421774592 84038 -2292 -12453 -187345
832428349439988608 84378 -2118 -12322 -187337
832428349458202752 84898 -1884 -12169 -187289
832428349476416768 85361 -1732 -12011 -187294
832428349494630784 85620 -1550 -11865 -187323
832428349512844928 85909 -1369 -11720 -187296
832428349531058944 86014 -1185 -11663 -187310
832428349549272960 86050 -1257 -11637 -187356
832428349567487104 86077 -1242 -11669 -187355
832428349585701120 86207 -1257 -11652 -187307
832428349603915136 86351 -1137 -11566 -187362
832428349622129280 86654 -926 -11418 -187293
832428349640343296 86943 -843 -11343 -187369
832428349658557312 87387 -611 -11164 -187333
832428349676771456 87888 -278 -10937 -187334
832428349694985472 88311 -62 -10732 -187356
832428349713199488 88444 17 -10748 -187370
832428349731413632 88294 -94 -10873 -187374
832428349749627648 87907 -316 -10943 -187334
832428349767841664 87059 -654 -11248 -187373
832428349786055808 86447 -1045 -11466 -187316
832428349804269824 85698 -1439 -11811 -187380
832428349822483840 84952 -1779 -12084 -187355
832428349840697856 84395 -2098 -12266 -187380
832428349858912000 83973 -2406 -12488 -187340
832428349877126014 83812 -2477 -12552 -187387
832428349895339136 83814 -2484 -12531 -187408
832428349913552256 83928 -2386 -12482 -187371
832428349931765376 84141 -2289 -12401 -187408
832428349949978624 84488 -2025 -12246 -187362
832428349968191744 84939 -1837 -12070 -187341
832428349986404864 85331 -1608 -11944 -187376
832428350004617984 85698 -1441 -11821 -187320
832428350022831104 85973 -1270 -11718 -187361
832428350041044224 86142 -1212 -11637 -187332
832428350059257472 86208 -1112 -11641 -187368
832428350077470592 86359 -1107 -11564 -187336
832428350095683712 86345 -1105 -11562 -187370
832428350113896832 86507 -955 -11463 -187372
832428350132109952 86835 -877 -11372 -187327
832428350150323072 87117 -673 -11288 -187355
832428350168536320 87492 -514 -11227 -187395
832428350186749440 87932 -276 -11020 -187362
832428350204962560 88313 -31 -10868 -187387
832428350223175680 88317 -13 -10770 -187400
832428350241388800 88097 -176 -10945 -187429
832428350259602048 87629 -427 -11084 -187339
832428350277815168 86930 -781 -11353 -187377
832428350296028288 86090 -1221 -11641 -187377
832428350314241408 85233 -1633 -11994 -187356
832428350332454528 84468 -2064 -12281 -187412
832428350350667648 83939 -2396 -12486 -187376
832428350368880896 83679 -2524 -12580 -187384
832428350387094016 83636 -2549 -12546 -187345
832428350405307136 83735 -2443 -12490 -187361
832428350423520256 84106 -2315 -12383 -187363
832428350441733376 84446 -2075 -12245 -187384
832428350459946496 84944 -1891 -12090 -187358
832428350478159744 85327 -1642 -11939 -187397
832428350496372864 85606 -1519 -11854 -187417
832428350514585984 85848 -1421 -11734 -187374
832428350532799104 86007 -1320 -11663 -187357
832428350551012224 86014 -1283 -11654 -187390
832428350569225344 86191 -1219 -11653 -187349
832428350587438568 86279 -1177 -11595 -187311
832428350605651712 86392 -1124 -11557 -187376
832428350623864832 86713 -955 -11421 -187350
832428350642077952 87049 -751 -11301 -187335
832428350660291200 87479 -532 -11132 -187378
832428350678504320 87857 -288 -10986 -187379
832428350696717440 88270 -102 -10841 -187413
832428350714930560 88404 5 -10829 -187377
832428350733143680 88206 -124 -10858 -187360
832428350751356800 87707 -382 -11037 -187346
832428350769570048 87089 -737 -11317 -187380
832428350787783168 86390 -1124 -11540 -187368
832428350805996288 85594 -1546 -11883 -187398
832428350824209408 84893 -1853 -12130 -187380
832428350842422528 84378 -2150 -12299 -187383
832428350860635648 84058 -2280 -12400 -187334
832428350878848896 83859 -2397 -12506 -187386
832428350897062016 83750 -2452 -12539 -187345
832428350915275136 83867 -2398 -12496 -187329
832428350933488256 84080 -2234 -12437 -187336
832428350951701376 84506 -2026 -12295 -187366
832428350969914624 84991 -1833 -12091 -187298
832428350988127744 85491 -1555 -11866 -187268
832428351006340864 85784 -1385 -11768 -187347
832428351024553984 85987 -1317 -11654 -187353
832428351042767104 86149 -1194 -11579 -187407
832428351060980224 86296 -1158 -11537 -187398
832428351079193472 86394 -1141 -11597 -187347
832428351097406592 86399 -1138 -11541 -187353
832428351115619712 86510 -1003 -11465 -187363
832428351133832832 86784 -891 -11409 -187330
832428351152045952 87117 -693 -11283 -187266
832428351170259072 87560 -437 -11062 -187281
832428351188472320 88077 -207 -10930 -187347
832428351206685440 88384 -60 -10777 -187357
832428351224898554 88390 -14 -10798 -187326
832428351243110912 88265 -103 -10916 -187341
832428351261323264 87630 -407 -11077 -187295
832428351279535488 86863 -830 -11338 -187336
832428351297747840 85990 -1301 -11690 -187376
832428351315960064 85145 -1750 -11995 -187364
832428351334172416 84501 -2040 -12255 -187363
832428351352384640 84036 -2276 -12430 -187349
832428351370596992 83820 -2456 -12552 -187379
832428351388809216 83709 -2534 -12575 -187343
832428351407021568 83787 -2450 -12566 -187336
832428351425233920 84092 -2289 -12387 -187322
832428351443446144 84588 -2035 -12251 -187371
832428351461658496 85003 -1836 -12131 -187363
832428351479870720 85368 -1682 -11939 -187371
832428351498083072 85599 -1570 -11917 -187414
832428351516295296 85797 -1426 -11812 -187343
832428351534507648 85811 -1331 -11717 -187330
832428351552719872 86031 -1217 -11659 -187337
832428351570932224 86244 -1151 -11590 -187325
832428351589144448 86250 -1110 -11576 -187312
832428351607356800 86468 -1028 -11486 -187319
832428351625569152 86774 -866 -11361 -187316
