TIMESTAMP PPG0 PPG1 PPG2 AMBIENT
832426742999913088 -242486 -326452 -336464 -509096
832426743018094848 -242499 -326469 -336407 -509080
832426743036276736 -242453 -326431 -336438 -509073
832426743054458496 -242427 -326367 -336444 -509088
832426743072640384 -242402 -326456 -336452 -509126
832426743090822144 -242373 -326437 -336421 -509114
832426743109004032 -242324 -326409 -336437 -509125
832426743127185792 -242308 -326333 -336387 -509114
832426743145367680 -242287 -326352 -336415 -509083
832426743163549440 -242362 -326327 -336350 -509099
832426743181731328 -242351 -326314 -336382 -509088
832426743199913088 -242419 -326413 -336458 -509088
832426743218094848 -242525 -326471 -336451 -509056
832426743236276736 -242428 -326450 -336429 -509099
832426743254458496 -242351 -326405 -336393 -509054
832426743272640384 -242309 -326412 -336405 -509088
832426743290822144 -242360 -326385 -336405 -509107
832426743309004032 -242366 -326420 -336428 -509118
832426743327185792 -242252 -326326 -336349 -509098
832426743345367680 -242276 -326377 -336334 -509089
832426743363549440 -242314 -326411 -336412 -509082
832426743381731328 -242394 -326360 -336331 -509066
832426743399913088 -242466 -326446 -336408 -509065
832426743418094848 -242497 -326525 -336476 -509058
832426743436276736 -242407 -326437 -336402 -509086
832426743454458496 -242424 -326411 -336429 -509092
832426743472640384 -242327 -326391 -336339 -509083
832426743490822144 -242388 -326397 -336387 -509098
832426743509004032 -242403 -326314 -336381 -509025
832426743527185792 -242293 -326327 -336376 -509048
832426743545367680 -242211 -326295 -336341 -509017
832426743563549440 -242259 -326351 -336366 -509079
832426743581731328 -242341 -326374 -336315 -509062
832426743599913088 -242415 -326430 -336369 -509050
832426743618094848 -242498 -326401 -336373 -509106
832426743636276736 -242381 -326374 -336381 -509091
832426743654458496 -242296 -326351 -336368 -509070
832426743672640384 -242261 -326367 -336386 -509045
832426743690822144 -242295 -326362 -336415 -509066
832426743709004032 -242297 -326402 -336404 -509033
832426743727185792 -242279 -326396 -336447 -509086
832426743745367680 -242283 -326348 -336409 -509084
832426743763549440 -242305 -326347 -336431 -509064
832426743781731328 -242399 -326401 -336424 -509074
832426743799913088 -242563 -326525 -336516 -509107
832426743818094848 -242514 -326444 -336460 -509071
832426743836276736 -242529 -326477 -336482 -509118
832426743854458496 -242386 -326389 -336438 -509100
832426743872640430 -242401 -326353 -336428 -509067
832426743890851968 -242415 -326348 -336395 -509118
832426743909063552 -242291 -326374 -336391 -509043
832426743927275264 -242294 -326363 -336412 -509047
832426743945486848 -242310 -326337 -336382 -509096
832426743963698432 -242314 -326433 -336420 -509122
832426743981910016 -242456 -326403 -336463 -509110
832426744000121728 -242503 -326460 -336429 -509128
832426744018333312 -242479 -326415 -336470 -509119
832426744036544896 -242436 -326380 -336421 -509132
832426744054756480 -242348 -326341 -336428 -509069
832426744072968192 -242396 -326399 -336414 -509122
832426744091179776 -242346 -326370 -336369 -509053
832426744109391360 -242314 -326289 -336364 -509068
832426744127602944 -242396 -326335 -336354 -509094
832426744145814656 -242384 -326365 -336447 -509080
832426744164026240 -242371 -326362 -336422 -509065
832426744182237824 -242395 -326398 -336431 -509039
832426744200449408 -242522 -326487 -336495 -509057
832426744218661120 -242463 -326381 -336477 -509059
832426744236872704 -242407 -326371 -336392 -509028
832426744255084288 -242365 -326380 -336412 -509079
832426744273295872 -242389 -326444 -336434 -509128
832426744291507584 -242342 -326394 -336300 -509056
832426744309719168 -242296 -326358 -336363 -509167
832426744327930752 -242334 -326316 -336383 -509088
832426744346142336 -242309 -326316 -336353 -509093
832426744364354048 -242314 -326352 -336360 -509085
832426744382565632 -242468 -326420 -336437 -509083
832426744400777216 -242449 -326498 -336493 -509056
832426744418988800 -242468 -326420 -336424 -509046
832426744437200512 -242415 -326400 -336364 -509039
832426744455412096 -242312 -326352 -336331 -509057
832426744473623680 -242299 -326402 -336404 -509130
832426744491835264 -242336 -326337 -336394 -509111
832426744510046976 -242338 -326328 -336366 -509104
832426744528258560 -242330 -326391 -336363 -509059
832426744546470144 -242296 -326285 -336367 -509085
832426744564681728 -242401 -326429 -336443 -509117
832426744582893440 -242452 -326459 -336463 -509063
832426744601105024 -242412 -326411 -336392 -509068
832426744619316608 -242437 -326385 -336414 -509063
832426744637528192 -242389 -326384 -336417 -509028
832426744655739938 -242324 -326337 -336367 -508999
832426744673951872 -242287 -326320 -336379 -509068
832426744692163840 -242319 -326352 -336421 -509097
832426744710375936 -242252 -326327 -336358 -509099
832426744728587904 -242327 -326321 -336381 -509104
832426744746800000 -242370 -326392 -336453 -509047
832426744765011968 -242405 -326388 -336419 -509062
832426744783223936 -242481 -326448 -336485 -509100
832426744801436032 -242524 -326504 -336517 -509104
832426744819648000 -242091 -326172 -336308 -509133
832426744837860096 -241209 -325726 -335964 -509068
832426744856072064 -240283 -325277 -335633 -509068
832426744874284032 -239634 -324911 -335359 -509070
832426744892496128 -239001 -324639 -335112 -509052
832426744910708096 -238762 -324537 -335042 -509128
832426744928920064 -238857 -324543 -335089 -509105
832426744947132160 -239165 -324686 -335170 -509069
832426744965344128 -239615 -324828 -335311 -509076
832426744983556224 -240257 -325197 -335593 -509137
832426745001768192 -240819 -325555 -335767 -509062
832426745019980160 -241362 -325873 -336089 -509057
832426745038192256 -241929 -326128 -336242 -509075
832426745056404224 -242503 -326411 -336442 -509088
832426745074616320 -242947 -326672 -336624 -509116
832426745092828288 -243199 -326856 -336703 -509103
832426745111040256 -243438 -326958 -336763 -509116
832426745129252352 -243493 -326938 -336778 -509035
832426745147464320 -243550 -327017 -336891 -509110
832426745165676416 -243529 -326984 -336797 -509089
832426745183888384 -243412 -326892 -336845 -509087
832426745202100352 -243078 -326769 -336657 -509096
832426745220312448 -242694 -326573 -336548 -509107
832426745238524416 -242296 -326340 -336360 -509158
832426745256736512 -241988 -326220 -336241 -509142
832426745274948480 -241707 -326120 -336136 -509075
832426745293160448 -241465 -325950 -336041 -509101
832426745311372544 -241308 -325866 -336049 -509114
832426745329584512 -241161 -325756 -335947 -509038
832426745347796626 -241100 -325741 -335956 -509054
832426745366008960 -241175 -325792 -335986 -509015
832426745384221312 -241130 -325735 -335886 -509050
832426745402433536 -241016 -325695 -335921 -509025
832426745420645888 -240996 -325695 -335888 -509045
832426745438858240 -240820 -325517 -335778 -509064
832426745457070592 -240596 -325444 -335735 -509051
832426745475282816 -240300 -325311 -335619 -509046
832426745493495168 -239954 -325126 -335523 -509054
832426745511707520 -239669 -325010 -335353 -509120
832426745529919872 -239421 -324802 -335222 -509087
832426745548132096 -239164 -324708 -335234 -509152
832426745566344448 -238937 -324577 -335081 -509155
832426745584556800 -238920 -324534 -335097 -509133
832426745602769152 -239042 -324624 -335119 -509083
832426745620981376 -239352 -324806 -335252 -509059
832426745639193728 -239837 -325030 -335458 -509144
832426745657406080 -240331 -325364 -335611 -509139
832426745675618304 -240959 -325654 -335851 -509082
832426745693830656 -241491 -325957 -336095 -509051
832426745712043008 -242073 -326204 -336342 -509059
832426745730255360 -242711 -326535 -336560 -509025
832426745748467584 -243186 -326753 -336676 -509081
832426745766679936 -243524 -327007 -336839 -509083
832426745784892288 -243632 -327053 -336829 -509117
832426745803104640 -243696 -327050 -336855 -509119
832426745821316864 -243581 -327082 -336837 -509020
832426745839529216 -243408 -326984 -336806 -509066
832426745857741568 -243145 -326818 -336724 -509127
832426745875953792 -242703 -326580 -336484 -509059
832426745894166144 -242354 -326398 -336395 -509059
832426745912378496 -242079 -326331 -336315 -509075
832426745930590848 -241857 -326122 -336190 -509074
832426745948803072 -241694 -326000 -336092 -509083
832426745967015424 -241520 -325952 -336067 -509073
832426745985227776 -241352 -325829 -335998 -509110
832426746003440128 -241190 -325781 -336008 -509082
832426746021652378 -241086 -325728 -335902 -509125
832426746039865472 -240985 -325652 -335875 -509072
832426746058078592 -240957 -325671 -335840 -509038
832426746076291712 -240892 -325629 -335835 -509135
832426746094504960 -240792 -325575 -335812 -509090
832426746112718080 -240637 -325458 -335761 -509043
832426746130931200 -240507 -325326 -335641 -509109
832426746149144320 -240312 -325312 -335610 -509088
832426746167357440 -240015 -325189 -335505 -509132
832426746185570560 -239720 -325031 -335419 -509114
832426746203783808 -239374 -324775 -335189 -509127
832426746221996928 -238920 -324553 -335061 -509074
832426746240210048 -238737 -324432 -334948 -509100
832426746258423168 -238777 -324488 -334959 -509092
832426746276636288 -239027 -324653 -335080 -509106
832426746294849408 -239355 -324797 -335192 -509074
832426746313062656 -240008 -325147 -335495 -509104
832426746331275776 -240679 -325514 -335701 -509105
832426746349488896 -241364 -325863 -335988 -509096
832426746367702016 -241947 -326177 -336185 -509062
832426746385915136 -242507 -326446 -336459 -509105
832426746404128384 -242924 -326688 -336602 -509059
832426746422341504 -243239 -326844 -336766 -509062
832426746440554624 -243441 -326995 -336861 -509100
832426746458767744 -243504 -327049 -336843 -509094
832426746476980864 -243487 -327008 -336782 -509075
832426746495193984 -243420 -326912 -336783 -509057
832426746513407232 -243396 -326928 -336782 -509094
832426746531620352 -243052 -326736 -336677 -509072
832426746549833472 -242782 -326579 -336588 -509059
832426746568046592 -242480 -326489 -336400 -509130
832426746586259712 -242106 -326272 -336349 -509088
832426746604472832 -241779 -326047 -336181 -509064
832426746622686080 -241495 -325991 -336094 -509051
832426746640899200 -241310 -325854 -335978 -509073
832426746659112320 -241119 -325748 -335936 -509074
832426746677325440 -241057 -325722 -335883 -509083
832426746695538648 -241036 -325731 -335880 -509090
832426746713751808 -241104 -325727 -335891 -509080
832426746731964928 -241084 -325676 -335933 -509046
832426746750178048 -241117 -325693 -335920 -509108
832426746768391296 -240927 -325652 -335869 -509136
832426746786604416 -240769 -325527 -335818 -509137
832426746804817536 -240454 -325368 -335625 -509053
832426746823030656 -240117 -325195 -335486 -509070
832426746841243776 -239792 -325051 -335408 -509121
832426746859456896 -239401 -324830 -335262 -509163
832426746877670144 -239082 -324670 -335146 -509091
832426746895883264 -238800 -324487 -334998 -509064
832426746914096384 -238732 -324500 -335013 -509005
832426746932309504 -239016 -324622 -335085 -509130
832426746950522624 -239319 -324767 -335231 -509087
832426746968735744 -239751 -325009 -335409 -509055
832426746986948992 -240260 -325274 -335661 -509100
832426747005162112 -240831 -325591 -335822 -509046
832426747023375232 -241444 -325905 -336043 -509049
832426747041588352 -242010 -326272 -336312 -509091
832426747059801472 -242456 -326480 -336424 -509092
832426747078014720 -242968 -326758 -336623 -509098
832426747096227840 -243342 -326933 -336768 -509090
832426747114440960 -243544 -327045 -336921 -509062
832426747132654080 -243698 -327108 -336845 -509092
832426747150867200 -243695 -327078 -336869 -509070
832426747169080320 -243528 -327065 -336855 -509106
832426747187293568 -243289 -326870 -336792 -509110
832426747205506688 -242921 -326682 -336617 -509143
832426747223719808 -242558 -326473 -336442 -509074
832426747241932928 -242146 -326345 -336321 -509057
832426747260146048 -241807 -326137 -336177 -509075
832426747278359168 -241586 -326006 -336146 -509107
832426747296572416 -241405 -325938 -336069 -509081
832426747314785536 -241347 -325847 -336025 -509045
832426747332998656 -241307 -325847 -336002 -509149
832426747351211776 -241156 -325818 -335961 -509134
832426747369421824 -241124 -325818 -335957 -509149
832426747387631872 -241074 -325743 -335887 -509093
832426747405842048 -240979 -325715 -335910 -509094
832426747424052096 -240917 -325662 -335842 -509102
832426747442262144 -240709 -325562 -335778 -509120
832426747460472320 -240445 -325439 -335698 -509157
832426747478682368 -240197 -325217 -335575 -509153
832426747496892416 -239979 -325040 -335478 -509137
832426747515102592 -239706 -324995 -335459 -509098
832426747533312640 -239492 -324845 -335323 -509126
832426747551522688 -239192 -324695 -335184 -509142
832426747569732864 -238915 -324562 -335097 -509096
832426747587942912 -238846 -324545 -335055 -509104
832426747606152960 -238997 -324671 -335117 -509083
832426747624363136 -239383 -324876 -335304 -509088
832426747642573184 -239776 -325071 -335390 -509042
832426747660783232 -240428 -325411 -335628 -509083
832426747678993408 -241042 -325733 -335884 -509145
832426747697203456 -241687 -326046 -336092 -509106
832426747715413504 -242381 -326380 -336431 -509137
832426747733623680 -242958 -326692 -336615 -509116
832426747751833728 -243266 -326875 -336775 -509092
832426747770043776 -243476 -327020 -336820 -509079
832426747788253952 -243596 -327029 -336875 -509063
832426747806464000 -243623 -327084 -336893 -509071
832426747824674048 -243581 -327100 -336906 -509149
832426747842884224 -243362 -326906 -336796 -509123
832426747861094272 -243064 -326794 -336672 -509074
832426747879304320 -242751 -326573 -336577 -509127
832426747897514496 -242469 -326462 -336450 -509111
832426747915724544 -242197 -326285 -336312 -509051
832426747933934592 -242053 -326164 -336279 -509153
832426747952144768 -241656 -326007 -336130 -509138
832426747970354816 -241438 -325904 -336026 -509092
832426747988564864 -241245 -325862 -335991 -509092
832426748006775028 -241188 -325817 -335978 -509108
832426748024986752 -241051 -325761 -335991 -509086
832426748043198464 -240965 -325671 -335909 -509150
832426748061410048 -240904 -325652 -335867 -509117
832426748079621760 -240914 -325641 -335867 -509080
832426748097833344 -240860 -325620 -335819 -509128
832426748116045056 -240806 -325548 -335763 -509063
832426748134256640 -240554 -325454 -335704 -509113
832426748152468352 -240271 -325251 -335577 -509075
832426748170679936 -239935 -325107 -335476 -509092
832426748188891648 -239487 -324925 -335319 -509114
832426748207103360 -239238 -324762 -335235 -509132
832426748225314944 -238883 -324664 -335122 -509105
832426748243526656 -238614 -324441 -334968 -509083
832426748261738240 -238752 -324499 -335044 -509137
832426748279949952 -239121 -324710 -335115 -509101
832426748298161536 -239635 -324905 -335351 -509156
832426748316373248 -240245 -325282 -335567 -509107
832426748334584960 -240842 -325625 -335856 -509079
832426748352796544 -241439 -325947 -335998 -509119
832426748371008256 -242005 -326191 -336293 -509142
832426748389219840 -242486 -326495 -336465 -509131
832426748407431552 -242921 -326819 -336631 -509092
832426748425643136 -243267 -326898 -336725 -509087
832426748443854848 -243456 -327031 -336831 -509092
832426748462066432 -243508 -327083 -336841 -509083
832426748480278144 -243544 -327054 -336914 -509088
832426748498489856 -243606 -327067 -336907 -509113
832426748516701440 -243507 -327007 -336910 -509117
832426748534913152 -243111 -326843 -336742 -509120
832426748553124736 -242785 -326616 -336597 -509098
832426748571336448 -242386 -326414 -336431 -509122
832426748589548032 -242074 -326261 -336284 -509115
832426748607759744 -241725 -326074 -336153 -509094
832426748625971328 -241367 -325905 -336021 -509081
832426748644183040 -241216 -325719 -335913 -509136
832426748662394752 -241160 -325739 -335966 -509161
832426748680606336 -241182 -325731 -335960 -509047
832426748698818048 -241235 -325849 -335955 -509074
832426748717029598 -241242 -325805 -336035 -509087
832426748735240192 -241117 -325786 -335955 -509109
832426748753450752 -240982 -325721 -335907 -509082
832426748771661312 -240804 -325608 -335802 -509107
832426748789872000 -240615 -325464 -335746 -509137
832426748808082560 -240350 -325309 -335639 -509091
832426748826293120 -239996 -325161 -335477 -509109
832426748844503680 -239664 -325023 -335397 -509089
832426748862714240 -239329 -324826 -335273 -509030
832426748880924928 -239157 -324680 -335171 -509091
832426748899135488 -238908 -324500 -335048 -509077
832426748917346048 -238909 -324562 -335103 -509030
832426748935556608 -239075 -324673 -335181 -509120
832426748953767168 -239328 -324913 -335233 -509106
832426748971977856 -239690 -325098 -335378 -509041
832426748990188416 -240337 -325378 -335634 -509049
832426749008398976 -241005 -325715 -335852 -509170
832426749026609536 -241473 -325909 -336059 -509139
832426749044820096 -242086 -326238 -336342 -509097
832426749063030784 -242718 -326583 -336561 -509114
832426749081241344 -243144 -326880 -336716 -509101
832426749099451904 -243503 -326965 -336779 -509054
832426749117662464 -243624 -327095 -336911 -509077
832426749135873024 -243696 -327096 -336916 -509077
832426749154083712 -243665 -327104 -336930 -509116
832426749172294272 -243434 -327009 -336840 -509108
832426749190504832 -243158 -326805 -336688 -509109
832426749208715392 -242888 -326648 -336587 -509058
832426749226925952 -242475 -326497 -336443 -509105
832426749245136640 -242176 -326276 -336359 -509096
832426749263347200 -241909 -326167 -336296 -509049
832426749281557760 -241689 -326020 -336159 -509018
832426749299768320 -241583 -326022 -336039 -509105
832426749317978880 -241367 -325904 -336019 -509083
832426749336189568 -241233 -325789 -335969 -509064
832426749354400128 -241077 -325696 -335917 -509080
832426749372610688 -241096 -325750 -335896 -509088
832426749390821264 -241052 -325699 -335957 -509039
832426749409032832 -240965 -325716 -335910 -509074
832426749427244416 -240837 -325594 -335845 -509088
832426749445456128 -240656 -325448 -335751 -509118
832426749463667712 -240520 -325396 -335669 -509108
832426749481879296 -240329 -325287 -335609 -509083
832426749500090880 -240148 -325183 -335538 -509099
832426749518302592 -239822 -325054 -335414 -509092
832426749536514176 -239384 -324829 -335272 -509119
832426749554725760 -239004 -324648 -335131 -509101
832426749572937344 -238846 -324618 -335051 -509120
832426749591149056 -238856 -324589 -335027 -509116
832426749609360640 -238991 -324620 -335072 -509103
832426749627572224 -239375 -324781 -335266 -509096
832426749645783808 -239977 -325149 -335512 -509109
832426749663995520 -240681 -325472 -335795 -509082
832426749682207104 -241264 -325823 -335954 -509086
832426749700418688 -242044 -326170 -336264 -509099
832426749718630272 -242497 -326406 -336417 -509096
832426749736841984 -242906 -326709 -336632 -509052
832426749755053568 -243225 -326894 -336774 -509074
832426749773265152 -243502 -327036 -336856 -509091
832426749791476736 -243661 -327052 -336888 -509073
832426749809688448 -243547 -327028 -336931 -509071
832426749827900032 -243462 -326988 -336863 -509108
832426749846111616 -243336 -326945 -336787 -509097
832426749864323200 -243118 -326754 -336673 -509138
832426749882534912 -242849 -326636 -336579 -509059
832426749900746496 -242500 -326499 -336515 -509105
832426749918958080 -242195 -326315 -336353 -509134
832426749937169664 -241820 -326135 -336180 -509115
832426749955381376 -241486 -325983 -336092 -509069
832426749973592960 -241257 -325868 -336038 -509048
832426749991804544 -241108 -325831 -335922 -509072
832426750010016128 -241045 -325745 -335903 -509091
832426750028227840 -240939 -325659 -335838 -509060
832426750046439424 -240968 -325654 -335830 -509059
832426750064651076 -241028 -325617 -335896 -509070
832426750082861952 -241048 -325577 -335873 -509104
832426750101072768 -240919 -325626 -335872 -509094
832426750119283584 -240683 -325468 -335743 -509111
832426750137494272 -240346 -325335 -335632 -509152
832426750155705088 -240114 -325211 -335531 -509105
832426750173915904 -239802 -325048 -335419 -509149
832426750192126720 -239455 -324860 -335342 -509065
832426750210337536 -239136 -324717 -335239 -509090
832426750228548224 -238822 -324515 -335055 -509054
832426750246759040 -238755 -324471 -335063 -509101
832426750264969856 -239043 -324611 -335162 -509098
832426750283180672 -239367 -324790 -335259 -509071
832426750301391488 -239774 -325007 -335357 -509040
832426750319602304 -240311 -325306 -335599 -509122
832426750337812992 -240942 -325596 -335849 -509125
832426750356023808 -241485 -325994 -336081 -509096
832426750374234624 -242082 -326274 -336308 -509083
832426750392445440 -242582 -326546 -336569 -509073
832426750410656256 -242858 -326673 -336613 -509067
832426750428866944 -243290 -326826 -336765 -509102
832426750447077760 -243524 -326971 -336850 -509080
832426750465288576 -243648 -327099 -336900 -509035
832426750483499392 -243734 -327099 -336927 -509088
832426750501710208 -243580 -327035 -336845 -509041
832426750519920896 -243205 -326915 -336748 -509003
832426750538131712 -242938 -326695 -336621 -509092
832426750556342528 -242583 -326526 -336467 -509069
832426750574553344 -242237 -326349 -336376 -509050
832426750592764160 -241822 -326114 -336205 -509072
832426750610974976 -241571 -325979 -336143 -509074
832426750629185664 -241378 -325877 -336051 -509046
832426750647396480 -241306 -325830 -336000 -509054
832426750665607296 -241287 -325842 -336001 -509091
832426750683818112 -241287 -325798 -336000 -509060
832426750702028928 -241254 -325801 -335961 -509079
832426750720239616 -241140 -325726 -335974 -509092
832426750738450370 -240993 -325714 -335912 -509052
832426750756662912 -240967 -325672 -335887 -509108
832426750774875392 -240809 -325589 -335854 -509086
832426750793088000 -240573 -325462 -335716 -509066
832426750811300480 -240236 -325236 -335635 -509076
832426750829512960 -240001 -325098 -335492 -509102
832426750847725440 -239740 -325047 -335459 -509084
832426750865938048 -239503 -324907 -335351 -509128
832426750884150528 -239133 -324789 -335204 -509074
832426750902363008 -238831 -324568 -335113 -509108
832426750920575488 -238819 -324554 -335000 -509072
832426750938788096 -239107 -324657 -335121 -509137
832426750957000576 -239378 -324824 -335244 -509045
832426750975213056 -239916 -325018 -335421 -509026
832426750993425536 -240386 -325341 -335617 -509046
832426751011638144 -241007 -325675 -335878 -509073
832426751029850624 -241695 -326045 -336161 -509083
832426751048063104 -242319 -326274 -336399 -509075
832426751066275712 -242970 -326677 -336657 -509037
832426751084488192 -243351 -326878 -336789 -509058
832426751102700672 -243593 -327047 -336956 -509107
832426751120913152 -243626 -327142 -336938 -509070
832426751139125760 -243628 -327045 -336938 -509065
832426751157338240 -243558 -326956 -336919 -509071
832426751175550720 -243377 -326958 -336860 -509139
832426751193763200 -243080 -326774 -336685 -509074
832426751211975808 -242731 -326596 -336529 -509108
832426751230188288 -242427 -326470 -336413 -509067
832426751248400768 -242162 -326318 -336312 -509059
832426751266613248 -241993 -326164 -336205 -509048
832426751284825856 -241731 -326042 -336181 -509072
832426751303038336 -241464 -325910 -336073 -509043
832426751321250816 -241311 -325799 -336012 -509075
832426751339463424 -241204 -325760 -335974 -509035
832426751357675852 -241107 -325694 -335973 -509094
832426751375887488 -241003 -325684 -335941 -509086
832426751394099072 -241027 -325669 -335904 -509096
832426751412310784 -240979 -325604 -335954 -509088
832426751430522368 -240917 -325543 -335845 -509122
832426751448733952 -240705 -325560 -335818 -509105
832426751466945536 -240633 -325445 -335769 -509066
832426751485157248 -240366 -325309 -335626 -509125
832426751503368832 -240041 -325118 -335511 -509099
832426751521580416 -239684 -324986 -335398 -509155
832426751539792000 -239244 -324731 -335219 -509128
832426751558003712 -238904 -324617 -335091 -509057
832426751576215296 -238786 -324504 -335039 -509080
832426751594426880 -238882 -324536 -335086 -509123
832426751612638464 -239164 -324706 -335193 -509127
832426751630850176 -239581 -324919 -335353 -509131
832426751649061760 -240215 -325238 -335598 -509138
832426751667273344 -240854 -325602 -335850 -509085
832426751685484928 -241431 -325923 -336136 -509107
832426751703696640 -242017 -326265 -336334 -509122
832426751721908224 -242470 -326515 -336492 -509079
832426751740119808 -243034 -326771 -336692 -509092
832426751758331392 -243336 -326913 -336779 -509052
832426751776543104 -243548 -326989 -336827 -509077
832426751794754688 -243638 -327040 -336889 -509104
832426751812966272 -243663 -327028 -336909 -509086
832426751831177856 -243570 -327014 -336851 -509042
832426751849389568 -243406 -326943 -336780 -509049
832426751867601152 -243079 -326749 -336682 -509094
832426751885812736 -242753 -326637 -336558 -509092
832426751904024320 -242442 -326423 -336446 -509084
832426751922236032 -242079 -326274 -336331 -509076
832426751940447616 -241784 -326105 -336144 -509070
832426751958659200 -241485 -325955 -336038 -509087
832426751976870784 -241246 -325899 -336014 -509083
832426751995082496 -241149 -325807 -336001 -509125
832426752013294038 -241077 -325780 -335984 -509114
832426752031505664 -241096 -325700 -335924 -509110
832426752049717248 -241140 -325735 -335943 -509108
832426752067928960 -241128 -325779 -335937 -509123
832426752086140544 -241044 -325732 -335879 -509113
832426752104352128 -240866 -325583 -335806 -509114
832426752122563712 -240625 -325444 -335715 -509080
832426752140775424 -240312 -325360 -335637 -509091
832426752158987008 -240100 -325259 -335559 -509107
832426752177198592 -239732 -324985 -335400 -509091
832426752195410176 -239415 -324850 -335261 -509077
832426752213621888 -239125 -324728 -335147 -509059
832426752231833472 -238888 -324572 -335057 -509071
832426752250045056 -238964 -324636 -335120 -509116
832426752268256640 -239096 -324619 -335180 -509088
832426752286468352 -239306 -324754 -335201 -509025
832426752304679936 -239805 -325077 -335403 -509066
832426752322891520 -240415 -325354 -335588 -509085
832426752341103104 -240945 -325638 -335834 -509092
832426752359314816 -241578 -325973 -336098 -509090
832426752377526400 -242161 -326217 -336257 -509071
832426752395737984 -242748 -326592 -336536 -509096
832426752413949568 -243116 -326840 -336668 -509075
832426752432161280 -243494 -327057 -336793 -509088
832426752450372864 -243717 -327200 -336915 -509066
832426752468584448 -243776 -327195 -336958 -509056
832426752486796032 -243731 -327127 -336979 -509081
832426752505007744 -243549 -327015 -336836 -509085
832426752523219328 -243235 -326863 -336754 -509134
832426752541430912 -242853 -326642 -336624 -509128
832426752559642496 -242534 -326449 -336466 -509040
832426752577854208 -242252 -326282 -336345 -509104
832426752596065792 -241972 -326137 -336237 -509086
832426752614277376 -241742 -326098 -336182 -509100
832426752632488960 -241613 -325952 -336127 -509107
832426752650700672 -241423 -325916 -336074 -509043
832426752668912256 -241319 -325841 -336032 -509046
832426752687123840 -241195 -325824 -335957 -509062
832426752705335424 -241149 -325805 -335932 -509073
832426752723547082 -240997 -325743 -335892 -509086
832426752741759104 -240991 -325736 -335912 -509133
832426752759971072 -240776 -325576 -335799 -509067
832426752778183040 -240654 -325511 -335784 -509085
832426752796394880 -240491 -325368 -335651 -509052
832426752814606848 -240236 -325260 -335579 -509105
832426752832818816 -240062 -325217 -335513 -509109
832426752851030784 -239723 -325006 -335442 -509111
832426752869242752 -239380 -324797 -335243 -509043
832426752887454720 -239054 -324615 -335131 -509040
832426752905666560 -238867 -324456 -335074 -509064
832426752923878528 -238836 -324454 -335051 -509024
832426752942090496 -239063 -324620 -335079 -509031
832426752960302464 -239438 -324828 -335271 -509057
832426752978514432 -239974 -325160 -335508 -509071
832426752996726400 -240562 -325483 -335770 -509115
832426753014938240 -241244 -325771 -335973 -509067
832426753033150208 -241941 -326207 -336213 -509080
832426753051362176 -242505 -326474 -336431 -509057
832426753069574144 -242991 -326740 -336647 -509121
832426753087786112 -243290 -326872 -336787 -509085
832426753105998080 -243465 -326995 -336862 -509091
832426753124209920 -243539 -327045 -336936 -509069
832426753142421888 -243512 -327058 -336920 -509102
832426753160633856 -243484 -327016 -336844 -509117
832426753178845824 -243323 -326910 -336830 -509114
832426753197057792 -243063 -326794 -336744 -509087
832426753215269760 -242828 -326703 -336635 -509085
832426753233481600 -242554 -326523 -336490 -509094
832426753251693568 -242301 -326360 -336379 -509123
832426753269905536 -241901 -326195 -336226 -509120
832426753288117504 -241627 -326056 -336119 -509116
832426753306329472 -241444 -325983 -336063 -509117
832426753324541440 -241186 -325829 -335961 -509090
832426753342753280 -241054 -325731 -335961 -509119
832426753360965248 -241021 -325706 -335889 -509099
832426753379177216 -241031 -325687 -335882 -509074
832426753397389100 -241041 -325744 -335925 -509072
832426753415600384 -241065 -325736 -335933 -509111
832426753433811712 -241025 -325689 -335892 -509099
832426753452022912 -240755 -325580 -335878 -509101
832426753470234240 -240477 -325378 -335702 -509069
832426753488445568 -240195 -325263 -335600 -509080
832426753506656768 -239886 -325067 -335470 -509065
832426753524868096 -239512 -324946 -335337 -509085
832426753543079424 -239107 -324694 -335193 -509149
832426753561290624 -238867 -324535 -335158 -509113
832426753579501952 -238769 -324456 -335045 -509080
832426753597713280 -238959 -324570 -335122 -509107
832426753615924480 -239336 -324766 -335203 -509100
832426753634135808 -239785 -325098 -335439 -509085
832426753652347136 -240284 -325369 -335667 -509140
832426753670558336 -240920 -325669 -335881 -509157
832426753688769664 -241500 -325928 -336158 -509097
832426753706980992 -242054 -326214 -336294 -509075
832426753725192320 -242598 -326542 -336544 -509104
832426753743403520 -242976 -326754 -336710 -509081
832426753761614848 -243353 -326926 -336828 -509069
832426753779826176 -243533 -327040 -336894 -509123
832426753798037376 -243684 -327117 -336955 -509101
832426753816248704 -243748 -327178 -337009 -509077
832426753834460032 -243677 -327097 -336954 -509113
832426753852671232 -243335 -326956 -336820 -509100
832426753870882560 -242950 -326759 -336741 -509066
832426753889093888 -242633 -326565 -336534 -509101
832426753907305088 -242388 -326426 -336425 -509090
832426753925516416 -241920 -326239 -336256 -509009
832426753943727744 -241568 -326039 -336158 -509051
832426753961938944 -241422 -325927 -336073 -509108
832426753980150272 -241283 -325786 -335994 -509100
832426753998361600 -241311 -325757 -335989 -509122
832426754016572800 -241238 -325787 -336004 -509094
832426754034784128 -241164 -325747 -335943 -509039
832426754052995456 -241198 -325770 -335933 -509110
832426754071206706 -241080 -325747 -335941 -509110
832426754089418240 -240923 -325720 -335939 -509064
832426754107629824 -240764 -325633 -335857 -509076
832426754125841536 -240527 -325532 -335761 -509090
832426754144053120 -240244 -325339 -335671 -509108
832426754162264704 -239979 -325211 -335520 -509089
832426754180476288 -239737 -325065 -335443 -509037
832426754198688000 -239545 -324896 -335303 -509048
832426754216899584 -239268 -324745 -335171 -509035
832426754235111168 -238912 -324566 -335005 -509020
832426754253322752 -238866 -324503 -335022 -509030
832426754271534464 -239121 -324671 -335131 -509106
832426754289746048 -239350 -324789 -335254 -509092
832426754307957632 -239839 -325077 -335444 -509114
832426754326169216 -240353 -325330 -335637 -509086
832426754344380928 -240966 -325681 -335960 -509096
832426754362592512 -241655 -326055 -336175 -509128
832426754380804096 -242293 -326392 -336441 -509106
832426754399015680 -242881 -326705 -336624 -509094
832426754417227392 -243323 -326913 -336787 -509082
832426754435438976 -243585 -327068 -336880 -509091
832426754453650560 -243625 -327075 -336880 -509065
832426754471862144 -243719 -327170 -336976 -509062
832426754490073856 -243511 -327093 -336929 -509059
832426754508285440 -243341 -326965 -336816 -509084
832426754526497024 -243027 -326732 -336648 -509063
832426754544708608 -242697 -326553 -336557 -509062
832426754562920320 -242429 -326403 -336463 -509034
832426754581131904 -242189 -326291 -336323 -509062
832426754599343488 -241983 -326181 -336296 -509069
832426754617555072 -241677 -326085 -336171 -509063
832426754635766784 -241466 -325965 -336120 -509093
832426754653978368 -241326 -325845 -336026 -509074
832426754672189952 -241164 -325808 -335925 -509106
832426754690401536 -241091 -325722 -335937 -509091
832426754708613248 -241068 -325693 -335932 -509083
832426754726824832 -240955 -325611 -335876 -509036
832426754745036518 -240849 -325618 -335859 -509046
832426754763248128 -240834 -325606 -335769 -509098
832426754781459712 -240785 -325545 -335736 -509069
832426754799671424 -240580 -325489 -335775 -509053
832426754817883008 -240369 -325340 -335617 -509047
832426754836094592 -240036 -325205 -335544 -509092
832426754854306176 -239690 -325031 -335354 -509071
832426754872517888 -239332 -324832 -335251 -509066
832426754890729472 -238946 -324651 -335085 -509075
832426754908941056 -238763 -324532 -335071 -509116
832426754927152640 -238794 -324475 -335076 -509075
832426754945364352 -239079 -324618 -335101 -509058
832426754963575936 -239577 -324982 -335342 -509075
832426754981787520 -240147 -325200 -335578 -509032
832426754999999104 -240809 -325535 -335864 -509028
832426755018210816 -241376 -325938 -336072 -509019
832426755036422400 -241978 -326181 -336232 -509030
832426755054633984 -242547 -326491 -336480 -509108
832426755072845568 -242961 -326691 -336581 -509057
832426755091057280 -243301 -326930 -336709 -508994
832426755109268864 -243438 -327019 -336810 -509080
832426755127480448 -243600 -327098 -336941 -509073
832426755145692032 -243629 -327074 -336932 -509088
832426755163903744 -243588 -327024 -336898 -509099
832426755182115328 -243475 -326957 -336767 -509072
832426755200326912 -243204 -326826 -336735 -509130
832426755218538496 -242799 -326652 -336581 -509075
832426755236750208 -242508 -326474 -336459 -509154
832426755254961792 -242065 -326260 -336347 -509070
832426755273173376 -241788 -326138 -336196 -509058
832426755291384960 -241543 -326009 -336089 -509107
832426755309596672 -241176 -325856 -335999 -509037
832426755327808256 -241122 -325740 -335909 -509080
832426755346019840 -241127 -325724 -335867 -509098
832426755364231482 -241187 -325766 -335934 -509083
832426755382442240 -241140 -325734 -335920 -509097
832426755400653056 -241194 -325787 -335925 -509123
832426755418864000 -241029 -325705 -335897 -509088
832426755437074816 -240877 -325619 -335820 -509102
832426755455285760 -240623 -325495 -335773 -509067
832426755473496576 -240353 -325360 -335673 -508987
832426755491707520 -240109 -325287 -335513 -509007
832426755509918336 -239638 -325035 -335403 -509077
832426755528129280 -239415 -324851 -335235 -509072
832426755546340096 -239086 -324669 -335152 -509090
832426755564550912 -238802 -324536 -335035 -509039
832426755582761856 -238861 -324594 -335068 -509062
832426755600972672 -239067 -324666 -335153 -509043
832426755619183616 -239379 -324868 -335289 -509056
832426755637394432 -239812 -325022 -335385 -509029
832426755655605376 -240386 -325363 -335687 -509125
832426755673816192 -240983 -325752 -335895 -509132
832426755692027136 -241561 -326004 -336114 -509119
832426755710237952 -242107 -326231 -336346 -509075
832426755728448768 -242670 -326574 -336523 -509120
832426755746659712 -243133 -326841 -336702 -509050
832426755764870528 -243531 -327057 -336881 -509040
832426755783081472 -243799 -327205 -337008 -509111
832426755801292288 -243794 -327258 -337016 -509109
832426755819503232 -243691 -327150 -336961 -509088
832426755837714048 -243512 -327031 -336842 -509065
832426755855924992 -243226 -326921 -336783 -509082
832426755874135808 -242905 -326724 -336664 -509070
832426755892346624 -242552 -326565 -336536 -509052
832426755910557568 -242175 -326296 -336319 -509126
832426755928768384 -241890 -326140 -336199 -509102
832426755946979328 -241648 -326046 -336145 -509131
832426755965190144 -241552 -326029 -336109 -509102
832426755983401088 -241478 -325937 -336022 -509101
832426756001611904 -241339 -325828 -335972 -509072
832426756019822848 -241212 -325799 -335936 -509106
832426756038033664 -241220 -325788 -335965 -509101
832426756056244480 -241147 -325782 -335959 -509099
832426756074455522 -241063 -325737 -335917 -509101
832426756092667136 -240885 -325706 -335888 -509171
832426756110878720 -240665 -325544 -335816 -509098
832426756129090304 -240477 -325432 -335749 -509083
832426756147301888 -240352 -325367 -335663 -509094
832426756165513472 -240132 -325257 -335581 -509068
832426756183725056 -239838 -325107 -335491 -509074
832426756201936640 -239439 -324817 -335325 -509124
832426756220148224 -239071 -324732 -335200 -509099
832426756238359808 -238817 -324618 -335021 -509081
832426756256571392 -238822 -324608 -335082 -509100
832426756274782848 -239097 -324742 -335207 -509166
832426756292994432 -239403 -324836 -335318 -509097
832426756311206016 -239891 -325074 -335471 -509124
832426756329417600 -240575 -325398 -335769 -509077
832426756347629184 -241268 -325773 -335963 -509087
832426756365840768 -241993 -326181 -336316 -509071
832426756384052352 -242638 -326558 -336534 -509117
832426756402263936 -243105 -326750 -336689 -509048
832426756420475520 -243407 -326889 -336837 -509104
832426756438687104 -243567 -327060 -336925 -509023
832426756456898688 -243697 -327143 -336921 -509039
832426756475110272 -243736 -327199 -336945 -509091
832426756493321856 -243564 -327059 -336894 -509116
832426756511533440 -243356 -326969 -336844 -509084
832426756529745024 -243137 -326854 -336794 -509145
832426756547956608 -242895 -326687 -336653 -509142
832426756566168192 -242659 -326565 -336537 -509117
832426756584379776 -242327 -326382 -336352 -509137
832426756602591360 -241919 -326176 -336270 -509101
832426756620802944 -241631 -326077 -336203 -509168
832426756639014400 -241363 -326001 -336117 -509119
832426756657225984 -241255 -325881 -336029 -509060
832426756675437568 -241212 -325833 -336036 -509134
832426756693649152 -241015 -325769 -335957 -509071
832426756711860736 -241036 -325698 -335844 -509081
832426756730072320 -241010 -325727 -335908 -509048
832426756748283904 -241099 -325724 -335903 -509090
832426756766495488 -241036 -325737 -335935 -509079
832426756784707042 -240789 -325603 -335863 -509101
832426756802919040 -240511 -325461 -335725 -509071
832426756821131008 -240228 -325280 -335624 -509081
832426756839343104 -239899 -325171 -335503 -509087
832426756857555072 -239541 -324979 -335330 -509060
832426756875767168 -239213 -324807 -335191 -509107
832426756893979136 -238748 -324508 -335015 -509090
832426756912191232 -238730 -324494 -335011 -509081
832426756930403200 -238944 -324645 -335063 -509094
832426756948615296 -239298 -324785 -335234 -509065
832426756966827264 -239738 -325002 -335434 -509058
832426756985039360 -240271 -325320 -335608 -509084
832426757003251328 -240886 -325653 -335869 -509133
832426757021463424 -241381 -325908 -336041 -509059
832426757039675392 -242088 -326283 -336309 -509136
832426757057887488 -242603 -326588 -336545 -509107
832426757076099456 -242929 -326795 -336674 -509113
832426757094311552 -243241 -326950 -336779 -509085
832426757112523520 -243515 -327039 -336894 -509109
832426757130735616 -243674 -327104 -336953 -509119
832426757148947584 -243752 -327097 -336966 -509072
832426757167159680 -243708 -327102 -336985 -509096
832426757185371648 -243459 -327000 -336875 -509098
832426757203583616 -243054 -326808 -336702 -509102
832426757221795712 -242663 -326521 -336543 -509093
832426757240007680 -242386 -326423 -336449 -509052
832426757258219776 -242085 -326286 -336297 -509079
832426757276431744 -241753 -326115 -336219 -509092
832426757294643840 -241471 -326003 -336112 -509158
832426757312855808 -241309 -325935 -336108 -509161
832426757331067904 -241263 -325871 -336051 -509154
832426757349279872 -241294 -325877 -335975 -509118
832426757367491968 -241261 -325848 -335992 -509124
832426757385703936 -241175 -325781 -335959 -509096
832426757403916032 -241154 -325788 -335971 -509166
832426757422128000 -240968 -325670 -335891 -509111
832426757440340096 -240838 -325584 -335886 -509115
832426757458552116 -240611 -325525 -335831 -509124
832426757476765440 -240282 -325345 -335671 -509106
832426757494978816 -240035 -325214 -335522 -509094
832426757513192192 -239771 -325070 -335417 -509059
832426757531405440 -239496 -324977 -335335 -509089
832426757549618816 -239261 -324808 -335282 -509065
832426757567832192 -238971 -324676 -335171 -509094
832426757586045568 -238931 -324646 -335127 -509091
832426757604258944 -239121 -324685 -335178 -509108
832426757622472192 -239452 -324912 -335362 -509088
832426757640685568 -239912 -325183 -335522 -509098
832426757658898944 -240454 -325438 -335678 -509105
832426757677112320 -241030 -325757 -335954 -509170
832426757695325568 -241620 -326041 -336146 -509087
832426757713538944 -242245 -326344 -336403 -509107
832426757731752320 -242873 -326669 -336620 -509096
832426757749965696 -243371 -326980 -336778 -509093
832426757768179072 -243622 -327153 -336938 -509109
832426757786392320 -243733 -327190 -336976 -509066
832426757804605696 -243673 -327174 -336949 -509046
832426757822819072 -243623 -327095 -336954 -509096
832426757841032448 -243457 -326985 -336887 -509092
832426757859245824 -243110 -326809 -336727 -509137
832426757877459072 -242783 -326681 -336614 -509137
832426757895672448 -242476 -326427 -336455 -509100
832426757913885824 -242218 -326312 -336377 -509080
832426757932099200 -241974 -326180 -336287 -509052
832426757950312448 -241799 -326064 -336260 -509024
832426757968525824 -241580 -325991 -336128 -509102
832426757986739200 -241342 -325857 -336042 -509065
832426758004952576 -241232 -325801 -336016 -509100
832426758023165952 -241133 -325745 -335924 -509091
832426758041379200 -241040 -325741 -335907 -509047
832426758059592576 -240972 -325651 -335892 -509114
832426758077805952 -240951 -325707 -335880 -509081
832426758096019328 -240948 -325607 -335851 -509107
832426758114232704 -240844 -325582 -335875 -509137
832426758132446014 -240650 -325493 -335777 -509097
832426758150658304 -240464 -325367 -335649 -509081
832426758168870656 -240141 -325237 -335594 -509152
832426758187083136 -239705 -325047 -335413 -509132
832426758205295488 -239333 -324883 -335252 -509154
832426758223507968 -239014 -324676 -335181 -509109
832426758241720320 -238846 -324578 -335120 -509087
832426758259932672 -238909 -324603 -335124 -509099
832426758278145152 -239108 -324705 -335183 -509114
832426758296357504 -239579 -324927 -335364 -509091
832426758314569856 -240218 -325254 -335611 -509036
832426758332782336 -240877 -325612 -335875 -509086
832426758350994688 -241496 -325962 -336084 -509088
832426758369207168 -242069 -326286 -336321 -509104
832426758387419520 -242559 -326616 -336524 -509047
832426758405631872 -243017 -326803 -336671 -509119
832426758423844352 -243295 -326906 -336734 -509051
832426758442056704 -243584 -327063 -336881 -509069
832426758460269056 -243624 -327093 -336889 -509088
832426758478481536 -243609 -327069 -336967 -509094
832426758496693888 -243469 -327029 -336908 -509091
832426758514906368 -243319 -326879 -336792 -509092
832426758533118720 -243179 -326803 -336722 -509066
832426758551331072 -242794 -326655 -336586 -509122
832426758569543552 -242549 -326472 -336484 -509099
832426758587755904 -242163 -326324 -336377 -509086
832426758605968256 -241820 -326138 -336187 -509066
832426758624180736 -241568 -325989 -336123 -509108
832426758642393088 -241405 -325891 -336029 -509135
832426758660605568 -241228 -325815 -336035 -509104
832426758678817920 -241150 -325803 -335983 -509132
832426758697030272 -241111 -325816 -335988 -509137
832426758715242752 -241154 -325781 -335948 -509133
832426758733455104 -241213 -325719 -335974 -509099
832426758751667456 -241083 -325666 -335913 -509102
832426758769879936 -240848 -325607 -335845 -509053
832426758788092288 -240650 -325507 -335744 -509050
832426758806304816 -240382 -325297 -335646 -509056
832426758824514176 -240167 -325250 -335559 -509092
832426758842723584 -239813 -325014 -335427 -509077
832426758860932992 -239443 -324896 -335230 -509077
832426758879142400 -239117 -324710 -335166 -509094
832426758897351808 -238848 -324580 -335056 -509052
832426758915561088 -238886 -324579 -335079 -509159
832426758933770496 -239103 -324721 -335155 -509069
832426758951979904 -239385 -324789 -335276 -509127
832426758970189312 -239858 -324980 -335420 -509088
832426758988398720 -240389 -325322 -335696 -509057
832426759006608128 -240957 -325720 -335963 -509160
832426759024817536 -241567 -325978 -336120 -509081
832426759043026944 -242146 -326328 -336346 -509053
832426759061236224 -242669 -326568 -336569 -509161
832426759079445632 -243102 -326790 -336760 -509118
832426759097655040 -243425 -326973 -336885 -509118
832426759115864448 -243634 -327126 -336965 -509099
832426759134073856 -243814 -327187 -336981 -509110
832426759152283264 -243777 -327174 -336938 -509062
832426759170492672 -243590 -327080 -336860 -509067
832426759188702080 -243235 -326861 -336745 -509096
832426759206911488 -242887 -326727 -336637 -509091
832426759225120768 -242507 -326494 -336493 -509065
832426759243330176 -242129 -326327 -336367 -509047
832426759261539584 -241889 -326189 -336284 -509065
832426759279748992 -241663 -326055 -336183 -509038
832426759297958400 -241507 -325944 -336131 -509080
832426759316167808 -241393 -325906 -336076 -509128
832426759334377216 -241325 -325890 -335999 -509121
832426759352586624 -241220 -325802 -335927 -509108
832426759370796032 -241144 -325829 -335973 -509105
832426759389005312 -241074 -325839 -335922 -509060
832426759407214720 -241018 -325749 -335903 -509088
832426759425424128 -240948 -325702 -335901 -509134
832426759443633576 -240756 -325606 -335884 -509122
832426759461844352 -240533 -325463 -335695 -509064
832426759480055168 -240369 -325305 -335619 -509067
832426759498266112 -240111 -325180 -335530 -509038
832426759516476928 -239805 -325052 -335443 -509067
832426759534687744 -239479 -324941 -335330 -509041
832426759552898560 -239153 -324704 -335184 -509088
832426759571109504 -238889 -324612 -335096 -509070
832426759589320320 -238888 -324571 -335124 -509081
832426759607531136 -239117 -324686 -335210 -509139
832426759625742080 -239484 -324876 -335316 -509140
832426759643952896 -239959 -325097 -335456 -509116
832426759662163712 -240492 -325445 -335645 -509107
832426759680374656 -241162 -325800 -335932 -509067
832426759698585472 -241836 -326153 -336191 -509110
832426759716796288 -242551 -326517 -336561 -509153
832426759735007104 -242970 -326795 -336705 -509107
832426759753218048 -243326 -326910 -336859 -509053
832426759771428864 -243537 -327095 -336927 -509060
832426759789639680 -243646 -327197 -336990 -509092
832426759807850624 -243704 -327154 -336925 -509102
832426759826061440 -243508 -327031 -336847 -509055
832426759844272256 -243354 -326980 -336826 -509159
832426759862483072 -243085 -326769 -336745 -509105
832426759880694016 -242826 -326664 -336612 -509132
832426759898904832 -242520 -326530 -336499 -509103
832426759917115648 -242271 -326399 -336367 -509098
832426759935326592 -242013 -326242 -336282 -509087
832426759953537408 -241771 -326050 -336157 -509076
832426759971748224 -241437 -325980 -336061 -509093
832426759989959168 -241249 -325896 -335984 -509040
832426760008169984 -241186 -325879 -336001 -509085
832426760026380800 -241068 -325736 -335960 -509076
832426760044591616 -241011 -325747 -335922 -509126
832426760062802560 -241034 -325830 -335929 -509105
832426760081013376 -241021 -325796 -335955 -509088
832426760099224192 -240981 -325661 -335934 -509089
832426760117435136 -240908 -325616 -335847 -509093
832426760135645952 -240585 -325488 -335744 -509076
832426760153856768 -240223 -325325 -335584 -509064
832426760172067718 -239974 -325141 -335545 -509008
832426760190279296 -239558 -324952 -335408 -509041
832426760208490880 -239290 -324810 -335276 -509127
832426760226702592 -238902 -324605 -335053 -509125
832426760244914176 -238794 -324538 -335030 -509083
832426760263125760 -238969 -324641 -335156 -509076
832426760281337344 -239247 -324840 -335242 -509121
832426760299549056 -239727 -325061 -335442 -509102
832426760317760640 -240285 -325353 -335666 -509141
832426760335972224 -240889 -325660 -335884 -509144
832426760354183808 -241488 -325974 -336041 -509101
832426760372395520 -242136 -326321 -336297 -509091
832426760390607104 -242639 -326547 -336518 -509077
832426760408818688 -243072 -326858 -336767 -509049
832426760427030272 -243276 -326933 -336807 -509074
832426760445241984 -243537 -326998 -336857 -509094
832426760463453568 -243629 -327117 -336921 -509083
832426760481665152 -243742 -327138 -336980 -509124
832426760499876736 -243579 -327086 -336867 -509075
832426760518088448 -243427 -326988 -336888 -509127
832426760536300032 -243113 -326862 -336734 -509140
832426760554511616 -242737 -326670 -336535 -509092
832426760572723200 -242389 -326490 -336461 -509125
832426760590934912 -242021 -326317 -336354 -509136
832426760609146496 -241674 -326121 -336270 -509085
832426760627358080 -241443 -325983 -336118 -509069
832426760645569664 -241295 -325898 -336000 -509067
832426760663781376 -241229 -325829 -335995 -509108
832426760681992960 -241252 -325778 -336016 -509134
832426760700204544 -241314 -325834 -336014 -509065
832426760718416128 -241277 -325819 -335998 -509063
832426760736627840 -241149 -325811 -335992 -508998
832426760754839424 -241045 -325752 -335886 -509068
832426760773051008 -240790 -325677 -335870 -509126
832426760791262592 -240609 -325553 -335752 -509133
832426760809474304 -240316 -325385 -335670 -509062
832426760827685914 -240033 -325214 -335569 -509106
832426760845897216 -239769 -324993 -335465 -509089
832426760864108544 -239487 -324875 -335343 -509086
832426760882320000 -239238 -324727 -335213 -509097
832426760900531328 -239036 -324590 -335188 -509133
832426760918742656 -238903 -324567 -335174 -509082
832426760936954112 -239165 -324662 -335214 -509132
832426760955165440 -239430 -324798 -335296 -509094
832426760973376768 -239872 -325107 -335465 -509107
832426760991588224 -240487 -325423 -335750 -509079
832426761009799552 -240998 -325672 -335942 -509071
832426761028010880 -241619 -326021 -336134 -509072
832426761046222336 -242241 -326379 -336388 -509048
832426761064433664 -242782 -326674 -336602 -509070
832426761082644992 -243234 -326895 -336768 -509108
832426761100856320 -243565 -327084 -336870 -509076
832426761119067776 -243703 -327190 -336972 -509032
832426761137279104 -243732 -327211 -337030 -509072
832426761155490432 -243673 -327066 -336971 -509030
832426761173701888 -243428 -327037 -336838 -509055
832426761191913216 -243234 -326884 -336773 -509136
832426761210124544 -242771 -326652 -336585 -509088
832426761228336000 -242515 -326454 -336422 -509100
832426761246547328 -242240 -326309 -336363 -509064
832426761264758656 -241988 -326201 -336243 -509026
832426761282970112 -241825 -326093 -336196 -509099
832426761301181440 -241611 -325976 -336102 -509059
832426761319392768 -241408 -325850 -336050 -509107
832426761337604224 -241309 -325780 -336005 -509109
832426761355815552 -241192 -325782 -336001 -509110
832426761374026880 -241093 -325768 -335896 -509046
832426761392238336 -241057 -325740 -335947 -509065
832426761410449664 -240963 -325747 -335886 -509074
832426761428660992 -240883 -325660 -335858 -509100
832426761446872448 -240725 -325536 -335781 -509040
832426761465083776 -240592 -325427 -335738 -509049
832426761483295104 -240359 -325310 -335634 -509029
832426761501506564 -240144 -325220 -335526 -509055
832426761519719040 -239816 -324988 -335406 -509051
832426761537931520 -239396 -324839 -335300 -509040
832426761556143872 -239012 -324658 -335130 -509042
832426761574356352 -238813 -324553 -335078 -509070
832426761592568832 -238829 -324597 -335111 -509086
832426761610781184 -239029 -324671 -335179 -509123
832426761628993664 -239441 -324884 -335285 -508999
832426761647206144 -240042 -325209 -335614 -509115
832426761665418624 -240722 -325562 -335808 -509094
832426761683630976 -241449 -325884 -336052 -509063
832426761701843456 -242008 -326213 -336339 -509052
832426761720055936 -242499 -326524 -336502 -509024
832426761738268288 -242969 -326775 -336691 -509056
832426761756480768 -243274 -326915 -336790 -509092
832426761774693248 -243514 -327078 -336937 -509137
832426761792905600 -243651 -327054 -336873 -509026
832426761811118080 -243624 -327142 -336929 -509079
832426761829330560 -243589 -327134 -336947 -509139
832426761847543040 -243404 -326957 -336855 -509111
832426761865755392 -243196 -326839 -336813 -509118
832426761883967872 -242994 -326657 -336670 -509092
832426761902180352 -242539 -326515 -336513 -509096
832426761920392704 -242224 -326320 -336359 -509088
832426761938605184 -241872 -326139 -336191 -509051
832426761956817664 -241649 -326065 -336117 -509087
832426761975030016 -241480 -325979 -336134 -509106
832426761993242496 -241232 -325839 -336038 -509124
832426762011454976 -241102 -325775 -335995 -509106
832426762029667456 -241083 -325668 -335933 -509029
832426762047879808 -241125 -325771 -335971 -509053
832426762066092288 -241184 -325825 -335989 -509057
832426762084304768 -241147 -325780 -335947 -509086
832426762102517120 -241008 -325718 -335940 -509079
832426762120729600 -240740 -325552 -335793 -509060
832426762138942080 -240491 -325473 -335696 -509075
832426762157154432 -240222 -325323 -335566 -509071
832426762175366892 -239845 -325107 -335482 -509087
832426762193578752 -239479 -324938 -335330 -509091
832426762211790592 -239120 -324747 -335208 -509026
832426762230002432 -238952 -324576 -335162 -509107
832426762248214400 -238920 -324569 -335114 -509046
832426762266426240 -239166 -324677 -335200 -509089
832426762284638080 -239418 -324838 -335304 -509062
832426762302849920 -239840 -325101 -335489 -509116
832426762321061888 -240364 -325397 -335776 -509117
832426762339273728 -240968 -325711 -335910 -509100
832426762357485568 -241524 -325940 -336107 -509048
832426762375697408 -242165 -326264 -336348 -509085
832426762393909376 -242599 -326506 -336562 -509103
832426762412121216 -243052 -326784 -336741 -509098
832426762430333056 -243425 -327013 -336824 -509075
832426762448544896 -243711 -327074 -336910 -509014
832426762466756864 -243908 -327210 -337080 -509136
832426762484968704 -243766 -327182 -337026 -509110
832426762503180544 -243538 -327057 -336903 -509083
832426762521392384 -243299 -326932 -336811 -509057
832426762539604352 -242947 -326794 -336643 -509048
832426762557816192 -242586 -326563 -336534 -509059
832426762576028032 -242253 -326387 -336479 -509117
832426762594239872 -241899 -326196 -336294 -509068
832426762612451840 -241756 -326057 -336183 -509060
832426762630663680 -241565 -326002 -336164 -509091
832426762648875520 -241404 -325902 -336052 -509086
832426762667087360 -241371 -325910 -336050 -509120
832426762685299328 -241246 -325840 -336009 -509118
832426762703511168 -241167 -325785 -335998 -509113
832426762721723008 -241090 -325731 -335915 -509082
832426762739934848 -241070 -325727 -335930 -509092
832426762758146688 -241015 -325702 -335859 -509017
832426762776358656 -240812 -325590 -335804 -509109
832426762794570496 -240523 -325431 -335707 -509087
832426762812782336 -240354 -325324 -335601 -509119
832426762830994242 -240142 -325253 -335535 -509099
832426762849206784 -239894 -325195 -335490 -509106
832426762867419264 -239679 -325001 -335384 -509060
832426762885631744 -239302 -324809 -335324 -509111
832426762903844224 -238907 -324603 -335104 -509090
832426762922056704 -238973 -324617 -335135 -509134
832426762940269184 -239155 -324679 -335223 -509068
832426762958481664 -239490 -324959 -335358 -509077
832426762976694144 -239952 -325147 -335492 -509149
832426762994906752 -240542 -325497 -335744 -509083
832426763013119232 -241108 -325812 -335972 -509047
832426763031331712 -241846 -326125 -336253 -509054
832426763049544192 -242454 -326454 -336469 -509135
832426763067756672 -243005 -326757 -336681 -509093
832426763085969152 -243329 -326943 -336826 -509106
832426763104181632 -243622 -327075 -336924 -509133
832426763122394112 -243745 -327125 -337002 -509063
832426763140606592 -243746 -327145 -336928 -509052
832426763158819072 -243649 -327162 -336930 -509048
832426763177031552 -243379 -326950 -336853 -509077
832426763195244032 -243072 -326801 -336753 -509031
832426763213456512 -242753 -326634 -336594 -509063
832426763231668992 -242524 -326490 -336506 -509090
832426763249881472 -242276 -326379 -336357 -509094
832426763268094080 -242014 -326286 -336329 -509123
832426763286306560 -241711 -326140 -336212 -509100
832426763304519040 -241485 -325996 -336130 -509100
832426763322731520 -241281 -325894 -336036 -509100
832426763340944000 -241181 -325828 -335988 -509065
832426763359156480 -241171 -325821 -336026 -509053
832426763377368960 -241092 -325750 -335935 -509106
832426763395581440 -241057 -325753 -335872 -509116
832426763413793920 -241025 -325734 -335892 -509100
832426763432006400 -241029 -325709 -335921 -509131
832426763450218880 -240910 -325631 -335832 -509104
832426763468431340 -240664 -325533 -335812 -509075
832426763486643072 -240351 -325335 -335671 -509113
832426763504854784 -240032 -325189 -335565 -509123
832426763523066496 -239659 -325007 -335385 -509116
832426763541278336 -239318 -324867 -335239 -509065
832426763559490048 -238819 -324571 -335093 -509033
832426763577701760 -238759 -324506 -335036 -509105
832426763595913472 -238830 -324600 -335077 -509043
832426763614125184 -239204 -324746 -335249 -509055
832426763632337024 -239790 -325061 -335444 -509145
832426763650548736 -240405 -325365 -335709 -509179
832426763668760448 -240925 -325674 -335852 -509102
832426763686972160 -241478 -325983 -336154 -509148
832426763705183872 -242015 -326247 -336285 -509070
832426763723395712 -242558 -326504 -336561 -509072
832426763741607424 -243000 -326753 -336715 -509097
832426763759819136 -243251 -326856 -336698 -509038
832426763778030848 -243512 -326980 -336839 -509099
832426763796242560 -243658 -327120 -336934 -509149
832426763814454400 -243753 -327159 -336938 -509124
832426763832666112 -243707 -327130 -336941 -509120
832426763850877824 -243525 -327066 -336960 -509127
832426763869089536 -243100 -326806 -336745 -509111
832426763887301248 -242734 -326654 -336616 -509098
832426763905512960 -242344 -326411 -336439 -509098
832426763923724800 -242097 -326310 -336379 -509113
832426763941936512 -241809 -326149 -336217 -509117
832426763960148224 -241477 -326003 -336101 -509079
832426763978359936 -241296 -325888 -336072 -509067
832426763996571648 -241247 -325834 -336008 -509016
832426764014783488 -241216 -325834 -335963 -509052
832426764032995200 -241218 -325808 -336011 -509057
832426764051206912 -241176 -325768 -335990 -509077
832426764069418624 -241124 -325763 -335987 -509071
832426764087630336 -241038 -325698 -335934 -509077
832426764105842176 -240861 -325687 -335936 -509123
832426764124053888 -240694 -325540 -335828 -509081
832426764142265600 -240406 -325388 -335707 -509102
832426764160477346 -240116 -325233 -335495 -509104
832426764178689664 -239734 -324995 -335372 -509065
832426764196902016 -239471 -324903 -335326 -509119
832426764215114240 -239258 -324742 -335231 -509083
832426764233326592 -239082 -324624 -335168 -509087
832426764251538944 -238973 -324601 -335125 -509076
832426764269751296 -239210 -324761 -335214 -509125
832426764287963520 -239465 -324920 -335281 -509117
832426764306175872 -239894 -325148 -335455 -509089
832426764324388224 -240422 -325474 -335705 -509066
832426764342600576 -241011 -325797 -335943 -509089
832426764360812800 -241628 -326098 -336164 -509132
832426764379025152 -242244 -326362 -336395 -509097
832426764397237504 -242829 -326686 -336674 -509052
832426764415449856 -243286 -326924 -336763 -509060
832426764433662080 -243687 -327172 -336933 -509103
832426764451874432 -243778 -327207 -336982 -509107
832426764470086784 -243838 -327219 -336998 -509108
832426764488299008 -243674 -327137 -336946 -509076
832426764506511360 -243554 -327037 -336898 -509120
832426764524723712 -243250 -326870 -336861 -509104
832426764542936064 -242872 -326695 -336667 -509088
832426764561148288 -242461 -326533 -336479 -509073
832426764579360640 -242218 -326413 -336412 -509122
832426764597572992 -241946 -326228 -336256 -509141
832426764615785344 -241756 -326102 -336240 -509065
832426764633997568 -241685 -326036 -336162 -509177
832426764652209920 -241395 -325927 -336073 -509072
832426764670422272 -241271 -325837 -336004 -509083
832426764688634496 -241196 -325773 -336042 -509076
832426764706846848 -241099 -325806 -335947 -509066
832426764725059200 -241103 -325773 -335963 -509123
832426764743271552 -241000 -325675 -335870 -509086
832426764761483776 -240936 -325626 -335890 -509065
832426764779696128 -240724 -325529 -335841 -509080
832426764797908480 -240550 -325372 -335720 -509038
832426764816120832 -240398 -325357 -335679 -509065
832426764834333098 -240182 -325335 -335643 -509155
832426764852543872 -239801 -325099 -335491 -509134
832426764870754688 -239395 -324883 -335317 -509080
832426764888965504 -239086 -324753 -335209 -509119
832426764907176192 -238899 -324589 -335097 -509101
832426764925387008 -238953 -324577 -335125 -509060
832426764943597824 -239056 -324640 -335131 -509047
832426764961808640 -239455 -324843 -335335 -509070
832426764980019456 -240041 -325211 -335610 -509067
832426764998230144 -240754 -325493 -335812 -509034
832426765016440960 -241455 -325956 -336096 -509074
832426765034651776 -242038 -326267 -336295 -509104
832426765052862592 -242594 -326575 -336548 -509113
832426765071073408 -242965 -326701 -336661 -509054
832426765089284224 -243299 -326920 -336775 -509065
832426765107494912 -243516 -327047 -336881 -509076
832426765125705728 -243668 -327074 -336915 -509051
832426765143916544 -243629 -327079 -336925 -509082
832426765162127360 -243507 -327029 -336909 -509067
832426765180338176 -243389 -326996 -336812 -509121
832426765198548864 -243073 -326831 -336737 -509062
832426765216759680 -242863 -326684 -336688 -509058
832426765234970496 -242488 -326467 -336499 -509034
832426765253181312 -242200 -326343 -336467 -509101
832426765271392128 -241838 -326120 -336277 -509106
832426765289602816 -241687 -326000 -336170 -509102
832426765307813632 -241435 -325924 -336089 -509116
832426765326024448 -241229 -325867 -336012 -509113
832426765344235264 -241160 -325758 -335977 -509122
832426765362446080 -241111 -325798 -335941 -509116
832426765380656768 -241062 -325734 -335905 -509091
832426765398867584 -241107 -325783 -336006 -509106
832426765417078400 -241154 -325763 -335933 -509073
832426765435289216 -241004 -325707 -335872 -509053
832426765453500032 -240754 -325557 -335817 -509094
832426765471710720 -240430 -325409 -335673 -509021
832426765489921536 -240192 -325249 -335605 -509063
832426765508132382 -239912 -325056 -335505 -509090
832426765526343936 -239478 -324907 -335417 -509132
832426765544555520 -239164 -324682 -335252 -509122
832426765562767232 -238819 -324537 -335132 -509052
832426765580978816 -238853 -324526 -335051 -509109
832426765599190400 -239021 -324674 -335175 -509121
832426765617401984 -239437 -324887 -335341 -509127
832426765635613696 -239761 -325063 -335468 -509018
832426765653825280 -240363 -325404 -335712 -509058
832426765672036864 -240980 -325706 -335929 -509049
832426765690248448 -241519 -326003 -336157 -509038
832426765708460160 -242145 -326330 -336370 -509051
832426765726671744 -242606 -326583 -336556 -509090
832426765744883328 -243033 -326777 -336690 -509108
832426765763094912 -243373 -326981 -336855 -509109
832426765781306624 -243601 -327054 -336926 -509048
832426765799518208 -243760 -327155 -336972 -509069
832426765817729792 -243788 -327237 -336961 -509074
832426765835941376 -243680 -327164 -336923 -509150
832426765854153088 -243356 -326917 -336728 -509084
832426765872364672 -242962 -326775 -336653 -509105
832426765890576256 -242669 -326564 -336543 -509149
832426765908787840 -242336 -326418 -336445 -509134
832426765926999552 -242042 -326268 -336311 -509116
832426765945211136 -241723 -326131 -336183 -509075
832426765963422720 -241590 -326048 -336072 -509096
832426765981634304 -241344 -325920 -335997 -509030
832426765999846016 -241306 -325889 -336054 -509048
832426766018057600 -241230 -325858 -336032 -509032
832426766036269184 -241148 -325749 -335984 -509049
832426766054480768 -241154 -325808 -335980 -509066
832426766072692480 -240997 -325726 -335958 -509050
832426766090904064 -240932 -325660 -335900 -509107
832426766109115648 -240840 -325650 -335819 -509096
832426766127327232 -240547 -325474 -335694 -509073
832426766145538944 -240297 -325308 -335573 -509131
832426766163750528 -240125 -325215 -335568 -509105
832426766181962194 -239792 -325104 -335431 -509075
832426766200172544 -239539 -324958 -335336 -509068
832426766218382848 -239205 -324770 -335203 -509089
832426766236593280 -238944 -324567 -335091 -509062
832426766254803584 -238939 -324577 -335125 -509041
832426766273013888 -239155 -324729 -335237 -509037
832426766291224320 -239471 -324843 -335319 -509025
832426766309434624 -239935 -325192 -335507 -509116
832426766327644928 -240458 -325453 -335739 -509083
832426766345855360 -241102 -325779 -335966 -509073
832426766364065664 -241785 -326158 -336224 -509113
832426766382275968 -242418 -326482 -336465 -509115
832426766400486400 -243079 -326847 -336690 -509142
832426766418696704 -243373 -326938 -336777 -509065
832426766436907008 -243676 -327140 -336957 -509084
832426766455117312 -243696 -327167 -336946 -509073
832426766473327744 -243717 -327139 -336981 -509081
832426766491538048 -243645 -327135 -336941 -509098
832426766509748352 -243372 -327036 -336837 -509009
832426766527958784 -243068 -326821 -336706 -509053
832426766546169088 -242781 -326630 -336614 -509136
832426766564379392 -242484 -326477 -336498 -509184
832426766582589824 -242318 -326388 -336412 -509065
832426766600800128 -242042 -326283 -336313 -509084
832426766619010432 -241782 -326184 -336244 -509064
832426766637220864 -241592 -326027 -336180 -509058
832426766655431168 -241348 -325898 -336110 -509096
832426766673641472 -241268 -325886 -336021 -509114
832426766691851904 -241193 -325833 -335965 -509082
832426766710062208 -241120 -325749 -335917 -509076
832426766728272512 -241127 -325764 -335991 -509153
832426766746482944 -241089 -325800 -335890 -509141
832426766764693248 -240981 -325733 -335881 -509105
832426766782903552 -240904 -325664 -335881 -509106
832426766801113984 -240696 -325516 -335832 -509067
832426766819324288 -240398 -325357 -335658 -509084
832426766837534612 -240079 -325209 -335588 -509073
832426766855744640 -239680 -325009 -335394 -509088
832426766873954688 -239375 -324822 -335290 -509075
832426766892164864 -239068 -324663 -335153 -509166
832426766910374912 -238836 -324537 -335138 -509102
832426766928584960 -238972 -324619 -335144 -509113
832426766946795136 -239270 -324811 -335315 -509132
832426766965005184 -239735 -325003 -335489 -509124
832426766983215232 -240341 -325381 -335688 -509131
832426767001425408 -240855 -325665 -335857 -509085
832426767019635456 -241514 -325934 -336113 -509103
832426767037845504 -242074 -326251 -336349 -509126
832426767056055680 -242611 -326582 -336544 -509077
832426767074265728 -243063 -326770 -336703 -509107
832426767092475776 -243418 -326946 -336813 -509114
832426767110685952 -243571 -327099 -336854 -509092
832426767128896000 -243709 -327207 -336949 -509149
832426767147106048 -243761 -327184 -336939 -509105
832426767165316224 -243674 -327100 -336928 -509109
832426767183526272 -243597 -327037 -336941 -509136
832426767201736320 -243215 -326842 -336792 -509099
832426767219946496 -242797 -326702 -336635 -509103
832426767238156544 -242480 -326500 -336505 -509119
832426767256366592 -242115 -326343 -336360 -509102
832426767274576768 -241785 -326135 -336191 -509100
832426767292786816 -241514 -326045 -336151 -509123
832426767310996864 -241310 -325879 -336101 -509101
832426767329207040 -241251 -325849 -336036 -509133
832426767347417088 -241184 -325822 -336031 -509069
832426767365627136 -241281 -325864 -336039 -509064
832426767383837312 -241306 -325879 -336041 -509096
832426767402047360 -241210 -325840 -336022 -509134
832426767420257408 -241173 -325813 -336012 -509113
832426767438467584 -240974 -325768 -335847 -509056
832426767456677632 -240721 -325609 -335755 -509081
832426767474887786 -240444 -325443 -335712 -509106
832426767493097856 -240136 -325282 -335586 -509110
832426767511307904 -239848 -325081 -335449 -509080
832426767529518080 -239603 -325006 -335375 -509116
832426767547728128 -239226 -324750 -335241 -509108
832426767565938176 -238988 -324654 -335139 -509088
832426767584148352 -239020 -324664 -335149 -509042
832426767602358400 -239196 -324736 -335266 -509123
832426767620568448 -239441 -324842 -335344 -509077
832426767638778624 -239890 -325151 -335516 -509080
832426767656988672 -240494 -325423 -335733 -509142
832426767675198720 -241054 -325739 -335910 -509103
832426767693408896 -241581 -326073 -336180 -509067
832426767711618944 -242218 -326378 -336357 -509093
832426767729828992 -242826 -326660 -336599 -509063
832426767748039168 -243249 -326956 -336776 -509042
832426767766249216 -243619 -327118 -336923 -509074
832426767784459264 -243757 -327244 -337015 -509125
832426767802669440 -243838 -327215 -336977 -509086
832426767820879488 -243738 -327186 -336963 -509082
832426767839089536 -243571 -327081 -336908 -509110
832426767857299712 -243226 -326942 -336803 -509062
832426767875509760 -242868 -326732 -336699 -509103
832426767893719808 -242537 -326602 -336522 -509089
832426767911929984 -242287 -326481 -336386 -509109
832426767930140032 -242054 -326321 -336289 -509186
832426767948350080 -241801 -326170 -336173 -509119
832426767966560256 -241621 -326036 -336146 -509113
832426767984770304 -241370 -325949 -336097 -509092
832426768002980352 -241274 -325880 -336009 -509119
832426768021190528 -241301 -325859 -336070 -509100
832426768039400576 -241195 -325797 -335953 -509105
832426768057610624 -241121 -325821 -335967 -509123
832426768075820800 -241099 -325765 -335981 -509059
832426768094030848 -240902 -325674 -335863 -509115
832426768112240896 -240801 -325640 -335889 -509142
832426768130451072 -240598 -325499 -335803 -509064
832426768148661120 -240343 -325379 -335674 -509100
832426768166871230 -240185 -325270 -335642 -509109
832426768185081216 -239753 -325074 -335453 -509048
832426768203291264 -239526 -324945 -335379 -509126
832426768221501440 -239169 -324756 -335181 -509119
832426768239711488 -238948 -324636 -335144 -509105
832426768257921536 -238933 -324662 -335121 -509110
832426768276131712 -239144 -324754 -335163 -509166
832426768294341760 -239460 -324903 -335313 -509058
832426768312551808 -240009 -325218 -335532 -509099
832426768330761984 -240721 -325585 -335829 -509132
832426768348972032 -241329 -325928 -336110 -509099
832426768367182080 -242002 -326258 -336336 -509097
832426768385392256 -242557 -326584 -336513 -509124
832426768403602304 -243114 -326853 -336760 -509140
832426768421812352 -243409 -327086 -336825 -509148
832426768440022528 -243580 -327069 -336842 -509083
832426768458232576 -243647 -327078 -336942 -509105
832426768476442624 -243647 -327149 -336963 -509107
832426768494652800 -243527 -327082 -336964 -509060
832426768512862848 -243418 -326984 -336836 -509098
832426768531072896 -243157 -326846 -336741 -509102
832426768549283072 -242958 -326753 -336654 -509119
832426768567493120 -242606 -326599 -336547 -509178
832426768585703168 -242292 -326430 -336444 -509093
832426768603913344 -241923 -326220 -336267 -509083
832426768622123392 -241720 -326043 -336151 -509140
832426768640333440 -241462 -326018 -336121 -509105
832426768658543616 -241291 -325903 -336109 -509102
832426768676753664 -241154 -325816 -336012 -509130
832426768694963712 -241055 -325732 -335960 -509057
832426768713173888 -241139 -325775 -335958 -509074
832426768731383936 -241177 -325787 -335999 -509089
832426768749593984 -241156 -325840 -336005 -509075
832426768767804160 -241063 -325764 -335949 -509059
832426768786014208 -240804 -325606 -335849 -509102
832426768804224256 -240478 -325471 -335729 -509070
832426768822434432 -240239 -325371 -335653 -509065
832426768840644584 -239909 -325142 -335476 -509085
832426768858853888 -239523 -324989 -335345 -509096
832426768877063168 -239188 -324800 -335186 -509086
832426768895272448 -238852 -324591 -335046 -509092
832426768913481728 -238889 -324586 -335118 -509098
832426768931691008 -239086 -324648 -335159 -509088
832426768949900160 -239363 -324821 -335233 -509022
832426768968109440 -239787 -325070 -335436 -509028
832426768986318720 -240342 -325450 -335699 -509073
832426769004528000 -240973 -325739 -335982 -509118
832426769022737280 -241560 -325992 -336195 -509058
832426769040946560 -242166 -326264 -336393 -509045
832426769059155840 -242627 -326567 -336531 -509050
832426769077365120 -243032 -326777 -336694 -509062
832426769095574400 -243396 -326997 -336876 -509064
832426769113783552 -243661 -327129 -336953 -509132
832426769131992832 -243826 -327219 -337038 -509100
832426769150202112 -243888 -327267 -337042 -509098
832426769168411392 -243656 -327109 -336927 -509115
832426769186620672 -243438 -326952 -336845 -509080
832426769204829952 -243048 -326813 -336669 -509106
832426769223039232 -242671 -326594 -336534 -509058
832426769241248512 -242327 -326443 -336442 -509090
832426769259457792 -241980 -326276 -336341 -509110
832426769277666944 -241701 -326094 -336187 -509127
832426769295876224 -241439 -325941 -336052 -509047
832426769314085504 -241324 -325881 -335971 -509083
832426769332294784 -241285 -325862 -336001 -509084
832426769350504064 -241272 -325865 -336025 -509063
832426769368713344 -241249 -325801 -336009 -509070
832426769386922624 -241122 -325782 -336027 -509063
832426769405131904 -241102 -325737 -335970 -509096
832426769423341056 -241032 -325731 -335947 -509120
832426769441550336 -240871 -325649 -335873 -509096
832426769459759616 -240641 -325489 -335772 -509092
832426769477968896 -240272 -325341 -335651 -509133
832426769496178176 -240083 -325235 -335559 -509122
832426769514387408 -239865 -325103 -335472 -509077
832426769532597504 -239611 -324944 -335392 -509103
832426769550807552 -239335 -324818 -335284 -509126
832426769569017728 -239018 -324657 -335175 -509102
832426769587227776 -238963 -324629 -335141 -509108
832426769605437824 -239186 -324734 -335195 -509100
832426769623648000 -239513 -324887 -335333 -509066
832426769641858048 -239899 -325194 -335494 -509049
832426769660068096 -240437 -325482 -335729 -509086
832426769678278272 -241100 -325780 -336011 -509132
832426769696488320 -241778 -326180 -336285 -509171
832426769714698368 -242381 -326491 -336502 -509165
832426769732908544 -242990 -326796 -336695 -509120
832426769751118592 -243350 -327034 -336857 -509087
832426769769328640 -243581 -327118 -337007 -509142
832426769787538816 -243683 -327185 -336978 -509054
832426769805748864 -243752 -327197 -337093 -509051
832426769823958912 -243691 -327135 -337040 -509088
832426769842169088 -243519 -327045 -336974 -509137
832426769860379136 -243119 -326819 -336779 -509094
832426769878589184 -242806 -326698 -336647 -509137
832426769896799360 -242507 -326551 -336489 -509086
832426769915009408 -242302 -326471 -336480 -509102
832426769933219456 -242120 -326294 -336343 -509132
832426769951429632 -241782 -326147 -336234 -509174
832426769969639680 -241570 -326093 -336198 -509162
832426769987849728 -241372 -325924 -336118 -509158
832426770006059904 -241273 -325831 -335978 -509152
832426770024269952 -241230 -325855 -336000 -509194
832426770042480000 -241109 -325798 -335982 -509148
832426770060690176 -241069 -325737 -335977 -509189
832426770078900224 -241020 -325717 -335932 -509148
832426770097110272 -240960 -325700 -335953 -509171
832426770115320448 -240862 -325645 -335918 -509179
832426770133530496 -240732 -325568 -335872 -509159
832426770151740544 -240358 -325423 -335737 -509083
832426770169950720 -239974 -325268 -335561 -509115
832426770188160762 -239636 -325060 -335384 -509034
832426770206369152 -239346 -324867 -335265 -509077
832426770224577536 -239010 -324692 -335136 -509079
832426770242785920 -238775 -324590 -335071 -509119
832426770260994304 -238832 -324573 -335082 -509056
832426770279202688 -239121 -324726 -335197 -509142
832426770297411072 -239578 -325002 -335406 -509103
832426770315619584 -240194 -325308 -335650 -509087
832426770333827968 -240877 -325654 -335861 -509022
832426770352036352 -241411 -325922 -336046 -508994
832426770370244736 -242064 -326264 -336285 -509100
832426770388453120 -242582 -326554 -336572 -509094
832426770406661504 -243082 -326813 -336731 -509090
832426770424869888 -243374 -326994 -336862 -509075
832426770443078272 -243531 -327072 -336900 -509071
832426770461286656 -243613 -327163 -336975 -509151
832426770479495040 -243647 -327129 -336943 -509079
832426770497703424 -243621 -327109 -336948 -509100
832426770515911808 -243529 -327092 -336946 -509140
832426770534120320 -243295 -326941 -336834 -509036
832426770552328704 -242802 -326669 -336666 -509092
832426770570537088 -242471 -326491 -336523 -509074
832426770588745472 -242114 -326328 -336370 -509152
832426770606953856 -241858 -326201 -336260 -509065
832426770625162240 -241560 -325958 -336107 -509063
832426770643370624 -241335 -325859 -335963 -509115
832426770661579008 -241171 -325820 -335900 -509105
832426770679787392 -241185 -325825 -335921 -509116
832426770697995776 -241123 -325774 -335967 -509035
832426770716204160 -241222 -325918 -335997 -509030
832426770734412672 -241184 -325888 -336000 -509064
832426770752621056 -241117 -325848 -335990 -509058
832426770770829440 -240989 -325739 -335985 -509133
832426770789037824 -240756 -325599 -335805 -509116
832426770807246208 -240454 -325413 -335748 -509091
832426770825454592 -240184 -325231 -335577 -509066
832426770843662988 -239850 -325118 -335569 -509127
832426770861872256 -239485 -324909 -335403 -509075
832426770880081536 -239126 -324764 -335257 -509013
832426770898290688 -238939 -324717 -335193 -509085
832426770916499968 -239036 -324680 -335174 -509019
832426770934709120 -239126 -324745 -335259 -509115
832426770952918400 -239473 -324858 -335320 -509038
832426770971127552 -239878 -325124 -335478 -509031
832426770989336832 -240469 -325462 -335704 -509068
832426771007545984 -241054 -325739 -335933 -509074
832426771025755264 -241594 -326042 -336127 -509054
832426771043964416 -242098 -326317 -336322 -509059
832426771062173696 -242689 -326639 -336497 -509115
832426771080382848 -243152 -326911 -336752 -509103
832426771098592128 -243595 -327138 -336934 -509134
832426771116801280 -243807 -327163 -337005 -509093
832426771135010560 -243819 -327233 -337033 -509074
832426771153219712 -243740 -327179 -336995 -509092
832426771171428992 -243548 -327094 -336907 -509074
832426771189638144 -243267 -326944 -336734 -509040
832426771207847424 -242936 -326734 -336624 -509079
832426771226056576 -242556 -326644 -336568 -509091
832426771244265856 -242211 -326426 -336459 -509094
832426771262475008 -241960 -326235 -336311 -509139
832426771280684288 -241740 -326110 -336176 -509046
832426771298893568 -241647 -326039 -336151 -509079
832426771317102720 -241478 -325959 -336134 -509085
832426771335312000 -241353 -325857 -336029 -509088
832426771353521152 -241244 -325871 -336024 -509144
832426771371730432 -241157 -325834 -336042 -509121
832426771389939584 -241132 -325847 -336016 -509143
832426771408148864 -241072 -325775 -336018 -509118
832426771426358016 -240883 -325680 -335866 -509089
832426771444567296 -240725 -325577 -335780 -509106
832426771462776448 -240522 -325398 -335639 -509071
832426771480985646 -240309 -325364 -335620 -509042
832426771499195648 -240147 -325306 -335606 -509029
832426771517405696 -239918 -325161 -335510 -509031
832426771535615872 -239471 -324952 -335390 -509068
832426771553825920 -239090 -324720 -335209 -509121
832426771572035968 -238852 -324606 -335133 -509109
832426771590246144 -238884 -324591 -335140 -509066
832426771608456192 -239086 -324725 -335224 -509088
832426771626666240 -239398 -324921 -335295 -509103
832426771644876416 -239911 -325129 -335506 -509114
832426771663086464 -240563 -325442 -335776 -509096
832426771681296512 -241255 -325849 -336063 -509107
832426771699506688 -241985 -326231 -336322 -509156
832426771717716736 -242571 -326586 -336569 -509173
832426771735926784 -243005 -326835 -336739 -509122
832426771754136960 -243343 -327016 -336843 -509091
832426771772347008 -243622 -327065 -336916 -509135
832426771790557056 -243644 -327145 -336998 -509119
832426771808767232 -243663 -327178 -336981 -509090
832426771826977280 -243547 -327047 -336928 -509045
832426771845187328 -243391 -326893 -336771 -509034
832426771863397504 -243152 -326773 -336686 -509032
832426771881607552 -242913 -326711 -336631 -509097
832426771899817600 -242622 -326598 -336604 -509133
832426771918027776 -242265 -326426 -336490 -509115
832426771936237824 -241938 -326240 -336302 -509050
832426771954447872 -241629 -326073 -336190 -509109
832426771972658048 -241460 -325992 -336148 -509115
832426771990868096 -241337 -325873 -336139 -509096
832426772009078144 -241276 -325841 -336094 -509168
832426772027288320 -241096 -325721 -335977 -509120
832426772045498368 -241075 -325764 -335975 -509086
832426772063708416 -241143 -325766 -335975 -509104
832426772081918592 -241031 -325746 -335936 -509107
832426772100128640 -241068 -325764 -335967 -509118
832426772118338820 -240807 -325602 -335882 -509100
832426772136547200 -240477 -325502 -335781 -509080
832426772154755584 -240200 -325347 -335633 -509115
832426772172964096 -239924 -325131 -335498 -509103
832426772191172480 -239600 -324993 -335397 -509099
832426772209380992 -239163 -324757 -335276 -509100
832426772227589376 -238832 -324590 -335156 -509134
832426772245797888 -238738 -324459 -335039 -509094
832426772264006272 -238908 -324571 -335105 -509079
832426772282214784 -239323 -324839 -335304 -509074
832426772300423168 -239940 -325096 -335463 -509102
832426772318631552 -240386 -325373 -335701 -509155
832426772336840064 -240980 -325715 -335896 -509076
832426772355048448 -241532 -326065 -336086 -509134
832426772373256960 -242144 -326366 -336399 -509101
832426772391465344 -242695 -326657 -336624 -509140
832426772409673856 -242987 -326771 -336671 -509072
832426772427882240 -243301 -326980 -336840 -509103
832426772446090752 -243580 -327076 -336913 -509135
832426772464299136 -243712 -327225 -336987 -509169
832426772482507520 -243770 -327220 -337025 -509130
832426772500716032 -243730 -327196 -336981 -509127
832426772518924416 -243453 -327011 -336831 -509098
832426772537132928 -243037 -326804 -336707 -509122
832426772555341312 -242739 -326635 -336599 -509142
832426772573549824 -242358 -326516 -336544 -509075
832426772591758208 -242073 -326290 -336387 -509128
832426772609966720 -241698 -326067 -336214 -509133
832426772628175104 -241523 -326006 -336143 -509152
832426772646383488 -241389 -325892 -336138 -509139
832426772664592000 -241246 -325809 -336022 -509082
832426772682800384 -241234 -325816 -335994 -509083
832426772701008896 -241255 -325806 -336071 -509056
832426772719217280 -241165 -325812 -336011 -509049
832426772737425792 -241119 -325798 -336025 -509094
832426772755634176 -241015 -325809 -335933 -509076
832426772773842688 -240874 -325687 -335904 -509130
832426772792051126 -240703 -325623 -335835 -509098
832426772810261120 -240311 -325446 -335704 -509138
832426772828471168 -240076 -325272 -335576 -509111
832426772846681344 -239805 -325100 -335491 -509109
832426772864891392 -239452 -324913 -335295 -509016
832426772883101440 -239271 -324802 -335275 -509082
832426772901311616 -239027 -324611 -335124 -509094
832426772919521664 -238978 -324639 -335153 -509085
832426772937731712 -239146 -324694 -335190 -509089
832426772955941888 -239425 -324796 -335279 -509077
832426772974151936 -239971 -325157 -335494 -509096
832426772992361984 -240518 -325372 -335718 -509103
832426773010572160 -241110 -325761 -335978 -509113
832426773028782208 -241680 -326074 -336182 -509120
832426773046992256 -242362 -326418 -336497 -509083
832426773065202432 -242926 -326754 -336700 -509093
832426773083412480 -243383 -326931 -336835 -509037
832426773101622528 -243592 -327081 -336910 -509075
832426773119832704 -243748 -327162 -337006 -509111
832426773138042752 -243752 -327180 -336898 -509049
832426773156252800 -243612 -327148 -336949 -509060
832426773174462976 -243488 -327130 -336919 -509097
832426773192673024 -243167 -326955 -336825 -509065
832426773210883072 -242878 -326750 -336754 -509163
832426773229093248 -242503 -326519 -336522 -509123
832426773247303296 -242264 -326359 -336413 -509116
832426773265513344 -241984 -326205 -336308 -509092
832426773283723520 -241767 -326128 -336250 -509090
832426773301933568 -241605 -326051 -336211 -509056
832426773320143616 -241409 -325913 -336063 -509075
832426773338353792 -241264 -325872 -336059 -509065
832426773356563840 -241255 -325856 -336042 -509119
832426773374773888 -241068 -325744 -335953 -509074
832426773392984064 -241066 -325789 -335995 -509087
832426773411194112 -240956 -325780 -335966 -509072
832426773429404160 -240865 -325643 -335865 -509064
832426773447614336 -240785 -325599 -335837 -509092
832426773465824480 -240621 -325526 -335754 -509113
832426773484032896 -240483 -325456 -335738 -509110
832426773502241280 -240096 -325263 -335597 -509057
832426773520449792 -239744 -325133 -335398 -509089
832426773538658176 -239393 -324964 -335304 -509073
832426773556866688 -239033 -324780 -335164 -509049
832426773575075072 -238888 -324607 -335148 -509064
832426773593283584 -238867 -324644 -335069 -509060
832426773611491968 -239106 -324798 -335217 -509037
832426773629700480 -239616 -325034 -335437 -509053
832426773647908864 -240187 -325283 -335527 -509073
832426773666117248 -240835 -325595 -335844 -509074
832426773684325760 -241544 -325975 -336126 -509100
832426773702534144 -242103 -326342 -336348 -509106
832426773720742656 -242628 -326625 -336546 -509142
832426773738951040 -243086 -326842 -336715 -509138
832426773757159552 -243396 -326999 -336843 -509128
832426773775367936 -243619 -327110 -336944 -509033
832426773793576448 -243609 -327137 -336932 -509059
832426773811784832 -243629 -327152 -336920 -509024
832426773829993216 -243553 -327027 -336914 -509053
832426773848201728 -243470 -326999 -336879 -509082
832426773866410112 -243195 -326923 -336757 -509083
832426773884618624 -242892 -326778 -336644 -509097
832426773902827008 -242474 -326512 -336496 -509071
832426773921035520 -242157 -326363 -336364 -509069
832426773939243904 -241882 -326214 -336229 -509088
832426773957452416 -241582 -326037 -336169 -509088
832426773975660800 -241335 -325928 -336122 -509086
832426773993869184 -241210 -325852 -336062 -509106
832426774012077696 -241189 -325788 -336025 -509118
832426774030286080 -241148 -325762 -335986 -509110
832426774048494592 -241093 -325809 -335963 -509076
832426774066702976 -241213 -325812 -335982 -509087
832426774084911488 -241226 -325790 -335973 -509087
832426774103119872 -241085 -325786 -335910 -509051
832426774121328384 -240800 -325608 -335776 -509064
832426774139536798 -240478 -325499 -335722 -509057
832426774157746816 -240170 -325334 -335622 -509107
832426774175956864 -239853 -325176 -335458 -509060
832426774194167040 -239517 -324965 -335353 -509032
832426774212377088 -239163 -324782 -335207 -509056
832426774230587136 -238814 -324595 -335097 -509031
832426774248797312 -238892 -324672 -335156 -509091
832426774267007360 -239106 -324696 -335203 -509096
832426774285217408 -239391 -324946 -335284 -509099
832426774303427584 -239834 -325132 -335446 -509071
832426774321637632 -240392 -325419 -335645 -509077
832426774339847680 -241050 -325737 -335952 -509062
832426774358057856 -241609 -326014 -336151 -509060
832426774376267904 -242116 -326312 -336377 -509080
832426774394477952 -242661 -326639 -336623 -509130
832426774412688128 -243104 -326859 -336757 -509040
832426774430898176 -243501 -327013 -336895 -509097
832426774449108224 -243726 -327169 -336905 -509043
832426774467318400 -243962 -327314 -337040 -509075
832426774485528448 -243775 -327248 -336992 -509068
832426774503738496 -243604 -327150 -336923 -509079
832426774521948672 -243335 -326994 -336882 -509130
832426774540158720 -242880 -326743 -336721 -509079
832426774558368768 -242585 -326586 -336558 -509123
832426774576578944 -242303 -326431 -336443 -509088
832426774594788992 -241944 -326256 -336248 -509063
832426774612999040 -241712 -326172 -336257 -509088
832426774631209216 -241511 -326053 -336158 -509056
832426774649419264 -241459 -325939 -336103 -509125
832426774667629312 -241442 -325933 -336063 -509157
832426774685839488 -241350 -325865 -336076 -509131
832426774704049536 -241246 -325839 -336031 -509121
832426774722259584 -241172 -325837 -336003 -509110
832426774740469760 -241019 -325744 -335925 -509114
832426774758679808 -240995 -325720 -335933 -509073
832426774776889856 -240795 -325640 -335850 -509039
832426774795100032 -240592 -325496 -335816 -509119
832426774813310152 -240351 -325381 -335680 -509114
832426774831520256 -240092 -325269 -335608 -509119
832426774849730304 -239847 -325002 -335476 -509049
832426774867940480 -239541 -324909 -335334 -509085
832426774886150528 -239205 -324739 -335266 -509104
832426774904360576 -238931 -324620 -335130 -509108
832426774922570752 -238908 -324602 -335108 -509090
832426774940780800 -239129 -324754 -335210 -509110
832426774958990848 -239531 -324970 -335424 -509163
832426774977201024 -239954 -325215 -335556 -509137
832426774995411072 -240545 -325447 -335748 -509137
832426775013621120 -241191 -325846 -336034 -509165
832426775031831296 -241848 -326133 -336237 -509069
832426775050041344 -242552 -326584 -336499 -509156
832426775068251392 -242998 -326746 -336638 -509111
832426775086461568 -243469 -326990 -336804 -509169
832426775104671616 -243647 -327122 -336907 -509115
832426775122881664 -243668 -327171 -336946 -509087
832426775141091840 -243736 -327179 -336923 -509116
832426775159301888 -243685 -327148 -336903 -509113
832426775177511936 -243484 -327078 -336854 -509124
832426775195722112 -243149 -326901 -336767 -509117
832426775213932160 -242857 -326688 -336624 -509090
832426775232142208 -242642 -326563 -336615 -509121
832426775250352384 -242387 -326488 -336480 -509088
832426775268562432 -242017 -326275 -336318 -509064
832426775286772480 -241684 -326092 -336223 -509119
832426775304982656 -241465 -325953 -336141 -509107
832426775323192704 -241256 -325874 -336032 -509079
832426775341402752 -241190 -325757 -336009 -509066
832426775359612928 -241068 -325684 -335950 -509032
832426775377822976 -241024 -325736 -335971 -509083
832426775396033024 -241125 -325752 -335932 -509125
832426775414243200 -241082 -325758 -335926 -509047
832426775432453248 -240995 -325706 -335868 -509020
832426775450663326 -240923 -325684 -335935 -509077
832426775468873344 -240596 -325513 -335737 -509037
832426775487083392 -240312 -325391 -335658 -509080
832426775505293440 -240001 -325180 -335509 -509092
832426775523503488 -239658 -325016 -335432 -509125
832426775541713536 -239270 -324879 -335242 -509104
832426775559923584 -238936 -324647 -335084 -509111
832426775578133632 -238850 -324548 -335054 -509125
832426775596343680 -238976 -324643 -335171 -509103
832426775614553728 -239244 -324794 -335250 -509050
832426775632763776 -239800 -325080 -335435 -509099
832426775650973824 -240373 -325463 -335697 -509084
832426775669183872 -240953 -325729 -335951 -509077
832426775687393920 -241560 -326041 -336189 -509120
832426775705603968 -242085 -326314 -336404 -509103
832426775723814016 -242604 -326566 -336538 -509050
832426775742024064 -243089 -326830 -336681 -509109
832426775760234112 -243343 -326995 -336840 -509086
832426775778444160 -243555 -327072 -336890 -509022
832426775796654208 -243743 -327178 -336982 -509121
832426775814864256 -243742 -327197 -336984 -509075
832426775833074304 -243725 -327171 -336998 -509111
832426775851284352 -243512 -327093 -336937 -509105
832426775869494400 -243064 -326891 -336804 -509045
832426775887704448 -242691 -326665 -336620 -509066
832426775905914496 -242438 -326547 -336521 -509108
832426775924124544 -242046 -326262 -336281 -509094
832426775942334720 -241764 -326158 -336242 -509087
832426775960544768 -241420 -325979 -336081 -509042
832426775978754816 -241350 -325898 -336105 -509119
832426775996964864 -241223 -325811 -335946 -509032
832426776015174912 -241230 -325795 -336035 -509120
832426776033384960 -241239 -325831 -335985 -509123
832426776051595008 -241232 -325832 -336001 -509111
832426776069805056 -241136 -325787 -335985 -509104
832426776088015104 -241045 -325679 -335950 -509062
832426776106225152 -240918 -325658 -335872 -509121
832426776124435200 -240653 -325597 -335802 -509157
832426776142645244 -240474 -325459 -335712 -509115
832426776160854528 -240136 -325228 -335563 -509103
832426776179063808 -239777 -325053 -335423 -509064
832426776197273216 -239516 -324876 -335383 -509110
832426776215482496 -239171 -324694 -335216 -509086
832426776233691776 -239008 -324645 -335166 -509059
832426776251901184 -238929 -324694 -335118 -509117
832426776270110464 -239093 -324740 -335206 -509179
832426776288319872 -239477 -324835 -335359 -509144
832426776306529152 -239861 -325070 -335511 -509134
832426776324738432 -240415 -325408 -335741 -509082
832426776342947840 -241010 -325714 -335958 -509089
832426776361157120 -241659 -326041 -336214 -509175
832426776379366400 -242283 -326348 -336498 -509141
832426776397575808 -242862 -326721 -336742 -509162
832426776415785088 -243420 -327024 -336924 -509119
832426776433994496 -243704 -327174 -336949 -509059
832426776452203776 -243749 -327184 -336979 -509102
832426776470413056 -243837 -327168 -337005 -509130
832426776488622464 -243687 -327178 -336970 -509067
832426776506831744 -243519 -327053 -336907 -509087
832426776525041024 -243197 -326915 -336768 -509092
832426776543250432 -242830 -326695 -336652 -509111
832426776561459712 -242567 -326520 -336520 -509124
832426776579669120 -242273 -326386 -336480 -509138
832426776597878400 -242048 -326255 -336397 -509103
832426776616087680 -241820 -326120 -336277 -509088
832426776634297088 -241715 -326068 -336233 -509168
832426776652506368 -241418 -325950 -336142 -509116
832426776670715648 -241352 -325948 -336094 -509110
832426776688925056 -241254 -325886 -336032 -509136
832426776707134336 -241142 -325870 -336032 -509130
832426776725343616 -241127 -325803 -335988 -509113
832426776743553024 -241021 -325755 -336005 -509130
832426776761762304 -240977 -325736 -335934 -509158
832426776779971712 -240869 -325675 -335905 -509193
832426776798180992 -240608 -325625 -335822 -509096
832426776816390272 -240418 -325444 -335753 -509072
832426776834599684 -240138 -325303 -335631 -509102
832426776852809728 -239790 -325106 -335492 -509058
832426776871019776 -239427 -324912 -335322 -509026
832426776889229952 -239103 -324679 -335217 -509050
832426776907440000 -238898 -324612 -335129 -509105
832426776925650048 -238885 -324642 -335163 -509156
832426776943860224 -239061 -324694 -335141 -509088
832426776962070272 -239514 -324932 -335340 -509130
832426776980280320 -240165 -325182 -335550 -509046
832426776998490496 -240793 -325638 -335831 -509073
832426777016700544 -241475 -325991 -336079 -509098
832426777034910592 -242013 -326269 -336293 -509067
832426777053120768 -242540 -326525 -336518 -509069
832426777071330816 -243043 -326799 -336763 -509079
832426777089540864 -243358 -326941 -336839 -509077
832426777107751040 -243579 -327036 -336877 -509088
832426777125961088 -243593 -327101 -336922 -509084
832426777144171136 -243627 -327116 -336965 -509074
832426777162381312 -243527 -327068 -336843 -509063
832426777180591360 -243357 -326958 -336811 -509069
832426777198801408 -243185 -326822 -336801 -509118
832426777217011584 -242908 -326712 -336714 -509073
832426777235221632 -242546 -326533 -336579 -509094
832426777253431680 -242183 -326374 -336465 -509117
832426777271641856 -241872 -326186 -336321 -509113
832426777289851904 -241662 -326060 -336214 -509090
832426777308061952 -241454 -325930 -336078 -509084
832426777326272128 -241232 -325835 -336069 -509121
832426777344482176 -241122 -325814 -335963 -509069
832426777362692224 -241141 -325787 -335980 -509084
832426777380902400 -241126 -325818 -335961 -509108
832426777399112448 -241147 -325828 -336024 -509086
832426777417322496 -241167 -325807 -336005 -509051
832426777435532672 -241007 -325730 -335988 -509041
832426777453742720 -240748 -325650 -335893 -509064
832426777471952768 -240470 -325459 -335754 -509054
832426777490162944 -240217 -325299 -335693 -509059
832426777508373038 -239855 -325138 -335472 -509063
832426777526582272 -239507 -324935 -335322 -509081
832426777544791552 -239090 -324723 -335203 -509086
832426777563000832 -238866 -324597 -335099 -509116
832426777581210112 -238847 -324623 -335100 -509079
832426777599419392 -239155 -324757 -335291 -509111
832426777617628544 -239483 -324887 -335349 -509079
832426777635837824 -239908 -325131 -335529 -509097
832426777654047104 -240398 -325430 -335700 -509133
832426777672256384 -240983 -325728 -335949 -509076
832426777690465664 -241587 -326048 -336174 -509080
832426777708674944 -242183 -326337 -336467 -509159
832426777726884224 -242662 -326626 -336573 -509134
832426777745093504 -243095 -326811 -336746 -509079
832426777763302784 -243403 -327003 -336878 -509075
832426777781511936 -243706 -327137 -336905 -509079
832426777799721216 -243796 -327228 -336962 -509096
832426777817930496 -243803 -327231 -336958 -509069
832426777836139776 -243673 -327144 -336941 -509092
832426777854349056 -243430 -326979 -336820 -509085
832426777872558336 -242977 -326769 -336722 -509125
832426777890767616 -242671 -326596 -336579 -509058
832426777908976896 -242343 -326362 -336501 -509073
832426777927186176 -241945 -326217 -336346 -509127
832426777945395328 -241711 -326101 -336292 -509128
832426777963604608 -241501 -326016 -336138 -509029
832426777981813888 -241387 -325924 -336100 -509082
832426778000023168 -241301 -325867 -336066 -509104
832426778018232448 -241221 -325819 -336010 -509094
832426778036441728 -241142 -325832 -335993 -509140
832426778054651008 -241132 -325803 -335992 -509072
832426778072860288 -241056 -325749 -335925 -509036
832426778091069568 -241002 -325667 -335888 -509060
832426778109278720 -240832 -325663 -335850 -509054
832426778127488000 -240519 -325501 -335728 -509111
832426778145697280 -240271 -325399 -335652 -509043
832426778163906560 -240063 -325253 -335555 -509056
832426778182115874 -239827 -325106 -335476 -509117
832426778200325888 -239584 -325005 -335430 -509109
832426778218535936 -239159 -324753 -335238 -509063
832426778236746112 -238880 -324565 -335139 -509105
832426778254956160 -238968 -324637 -335133 -509080
832426778273166208 -239161 -324720 -335212 -509036
832426778291376384 -239453 -324873 -335330 -509091
832426778309586432 -239938 -325149 -335592 -509088
832426778327796480 -240475 -325434 -335796 -509098
832426778346006656 -241117 -325781 -336015 -509165
832426778364216704 -241864 -326158 -336258 -509121
832426778382426752 -242572 -326546 -336546 -509097
832426778400636928 -243116 -326881 -336757 -509132
832426778418846976 -243391 -327015 -336862 -509077
832426778437057024 -243633 -327108 -336951 -509093
832426778455267200 -243735 -327180 -337000 -509075
832426778473477248 -243775 -327235 -337049 -509108
832426778491687296 -243655 -327086 -336985 -509071
832426778509897472 -243459 -326990 -336859 -509122
832426778528107520 -243028 -326865 -336699 -509028
832426778546317568 -242871 -326695 -336668 -509089
832426778564527744 -242557 -326566 -336534 -509019
832426778582737792 -242285 -326359 -336405 -509043
832426778600947840 -242097 -326286 -336359 -509067
832426778619158016 -241729 -326173 -336166 -509058
832426778637368064 -241501 -325990 -336107 -509055
832426778655578112 -241336 -325920 -336057 -509097
832426778673788288 -241222 -325905 -336021 -509055
832426778691998336 -241148 -325872 -336032 -509076
832426778710208384 -241148 -325767 -336032 -509057
832426778728418560 -241011 -325703 -335931 -509013
832426778746628608 -241067 -325715 -335903 -508969
832426778764838656 -241073 -325670 -335927 -509025
832426778783048832 -240948 -325591 -335866 -509037
832426778801258880 -240675 -325482 -335795 -508969
832426778819468928 -240277 -325368 -335651 -509016
832426778837679104 -240007 -325252 -335573 -509050
832426778855889228 -239674 -324984 -335413 -509124
832426778874098304 -239350 -324846 -335295 -509006
832426778892307328 -239014 -324670 -335141 -509037
832426778910516352 -238793 -324532 -335084 -509059
832426778928725248 -238896 -324625 -335098 -509003
832426778946934272 -239162 -324793 -335221 -509055
832426778965143296 -239683 -324987 -335395 -509065
832426778983352320 -240271 -325331 -335648 -509089
832426779001561344 -240867 -325664 -335878 -509080
832426779019770368 -241469 -326023 -336173 -509074
832426779037979264 -242083 -326286 -336350 -509068
832426779056188288 -242643 -326599 -336590 -509085
832426779074397312 -243065 -326816 -336751 -509005
832426779092606336 -243375 -326994 -336880 -509032
832426779110815360 -243543 -327030 -336912 -509092
832426779129024256 -243676 -327118 -336985 -509084
832426779147233280 -243732 -327182 -337025 -509118
832426779165442304 -243732 -327151 -336988 -509057
832426779183651328 -243584 -327049 -336922 -509015
832426779201860352 -243199 -326900 -336773 -509085
832426779220069376 -242804 -326719 -336656 -509094
832426779238278272 -242473 -326548 -336490 -509120
832426779256487296 -242127 -326384 -336400 -509106
832426779274696320 -241836 -326169 -336275 -509018
832426779292905344 -241565 -326082 -336172 -509098
832426779311114368 -241338 -325852 -336072 -509082
832426779329323264 -241200 -325804 -336014 -509047
832426779347532288 -241191 -325799 -335974 -509060
832426779365741312 -241189 -325805 -335969 -509045
832426779383950336 -241319 -325806 -335983 -509030
832426779402159360 -241190 -325785 -335948 -509039
832426779420368384 -241089 -325784 -335927 -509063
832426779438577280 -240929 -325679 -335836 -509055
832426779456786304 -240715 -325528 -335715 -509065
832426779474995328 -240415 -325403 -335643 -509051
832426779493204254 -240137 -325274 -335559 -509069
832426779511412736 -239802 -325015 -335351 -509046
832426779529621248 -239490 -324918 -335313 -509048
832426779547829888 -239254 -324732 -335196 -509049
832426779566038400 -238999 -324631 -335185 -509037
832426779584247040 -239022 -324687 -335171 -509074
832426779602455552 -239137 -324787 -335191 -509093
832426779620664064 -239421 -324850 -335322 -509085
832426779638872704 -239948 -325147 -335535 -509111
832426779657081216 -240496 -325380 -335749 -509130
832426779675289856 -241080 -325743 -335888 -509119
832426779693498368 -241530 -326030 -336125 -509106
832426779711707008 -242126 -326301 -336322 -509047
832426779729915520 -242755 -326673 -336620 -509074
832426779748124032 -243218 -326923 -336806 -509087
832426779766332672 -243633 -327120 -336917 -509117
832426779784541184 -243767 -327237 -336947 -509106
832426779802749824 -243820 -327256 -337014 -509077
832426779820958336 -243741 -327213 -336983 -509046
832426779839166848 -243581 -327106 -336925 -509049
832426779857375488 -243323 -326909 -336807 -509089
832426779875584000 -242978 -326730 -336689 -509060
832426779893792640 -242610 -326537 -336574 -509151
832426779912001152 -242224 -326352 -336411 -509081
832426779930209664 -241918 -326201 -336321 -509048
832426779948418304 -241702 -326081 -336168 -509053
832426779966626816 -241609 -325992 -336147 -509065
832426779984835456 -241396 -325955 -336118 -509001
832426780003043968 -241287 -325909 -336042 -509048
832426780021252608 -241219 -325847 -336039 -509075
832426780039461120 -241147 -325801 -335929 -509086
832426780057669632 -241132 -325753 -335957 -509050
832426780075878272 -241081 -325705 -335895 -509026
832426780094086784 -240881 -325692 -335869 -509026
832426780112295424 -240801 -325568 -335778 -509108
832426780130504022 -240639 -325533 -335828 -509059
832426780148711808 -240360 -325431 -335759 -509079
832426780166919552 -240168 -325371 -335684 -509133
832426780185127296 -239803 -325113 -335525 -509082
832426780203335040 -239496 -324924 -335398 -509094
832426780221542784 -239133 -324807 -335236 -509106
832426780239750528 -238926 -324641 -335141 -509067
832426780257958272 -238997 -324664 -335156 -509062
832426780276166016 -239130 -324795 -335272 -509093
832426780294373760 -239479 -324961 -335323 -509059
832426780312581504 -240028 -325266 -335584 -509063
832426780330789248 -240666 -325526 -335807 -509048
832426780348996992 -241438 -325922 -336149 -509119
832426780367204736 -242090 -326294 -336312 -509064
832426780385412480 -242568 -326585 -336565 -509089
832426780403620224 -243061 -326803 -336729 -509110
832426780421827840 -243374 -326997 -336846 -509077
832426780440035584 -243621 -327045 -336924 -509176
832426780458243328 -243708 -327167 -337012 -509175
832426780476451072 -243655 -327078 -336925 -509127
832426780494658816 -243516 -327070 -336938 -509086
832426780512866560 -243389 -327030 -336877 -509155
832426780531074304 -243150 -326879 -336795 -509090
832426780549282048 -242919 -326781 -336750 -509145
832426780567489792 -242633 -326677 -336572 -509106
832426780585697536 -242270 -326418 -336463 -509126
832426780603905280 -241974 -326258 -336341 -509116
832426780622113024 -241713 -326152 -336244 -509122
832426780640320768 -241452 -325949 -336147 -509064
832426780658528512 -241335 -325905 -336092 -509117
832426780676736256 -241203 -325856 -336026 -509066
832426780694944000 -241132 -325813 -336001 -509114
832426780713151744 -241100 -325723 -335912 -509033
832426780731359488 -241160 -325766 -335953 -509066
832426780749567232 -241246 -325822 -335982 -509111
832426780767774976 -241093 -325786 -335946 -509101
832426780785982720 -240866 -325636 -335879 -509121
832426780804190386 -240557 -325514 -335785 -509077
832426780822396672 -240218 -325303 -335681 -509121
832426780840603008 -239927 -325197 -335574 -509081
832426780858809344 -239664 -325039 -335441 -509154
832426780877015680 -239259 -324778 -335306 -509094
832426780895222016 -238932 -324611 -335142 -509089
832426780913428352 -238887 -324567 -335122 -509092
832426780931634688 -239034 -324675 -335153 -509040
832426780949841024 -239398 -324866 -335338 -509065
832426780968047360 -239872 -325098 -335463 -509081
832426780986253696 -240401 -325439 -335746 -509104
832426781004460032 -240920 -325692 -335924 -509117
832426781022666368 -241478 -325973 -336134 -509074
832426781040872704 -242138 -326277 -336364 -509082
832426781059079040 -242651 -326616 -336538 -509070
832426781077285376 -243098 -326841 -336759 -509081
832426781095491712 -243396 -327028 -336851 -509060
832426781113698048 -243665 -327079 -336963 -509082
832426781131904384 -243806 -327228 -337052 -509072
832426781150110720 -243872 -327207 -337012 -509082
832426781168317056 -243738 -327165 -336997 -509074
832426781186523392 -243418 -326966 -336879 -509081
832426781204729728 -243052 -326824 -336790 -509057
832426781222936064 -242695 -326649 -336594 -509075
832426781241142400 -242446 -326457 -336524 -509156
832426781259348736 -242058 -326300 -336365 -509122
832426781277555072 -241723 -326130 -336200 -509052
832426781295761408 -241464 -325959 -336115 -509035
832426781313967744 -241403 -325882 -336059 -509126
832426781332174080 -241339 -325828 -336014 -509128
832426781350380416 -241356 -325962 -336130 -509136
832426781368586752 -241310 -325890 -336130 -509124
832426781386793088 -241171 -325845 -336020 -509084
832426781404999424 -241168 -325785 -335999 -509142
832426781423205760 -241037 -325724 -335970 -509071
832426781441412096 -240921 -325699 -335907 -509107
832426781459618432 -240624 -325565 -335769 -509042
832426781477824882 -240381 -325365 -335674 -509122
832426781496033152 -240067 -325228 -335520 -509125
832426781514241408 -239835 -325097 -335512 -509149
832426781532449792 -239589 -324973 -335338 -509115
832426781550658048 -239265 -324843 -335279 -509124
832426781568866432 -238986 -324693 -335110 -509088
832426781587074688 -238987 -324675 -335148 -509126
832426781605283072 -239182 -324791 -335242 -509075
832426781623491328 -239498 -324928 -335372 -509108
832426781641699584 -239989 -325176 -335542 -509103
832426781659907968 -240488 -325479 -335764 -509106
832426781678116224 -241117 -325821 -335989 -509108
832426781696324608 -241694 -326115 -336210 -509120
832426781714532864 -242351 -326442 -336485 -509117
832426781732741248 -242917 -326780 -336702 -509113
832426781750949504 -243438 -327040 -336850 -509125
832426781769157760 -243649 -327126 -336956 -509086
832426781787366144 -243692 -327115 -336924 -509066
832426781805574400 -243659 -327113 -336962 -509037
832426781823782784 -243607 -327113 -336945 -509080
832426781841991040 -243489 -327083 -336940 -509087
832426781860199424 -243122 -326853 -336720 -509073
832426781878407680 -242781 -326661 -336596 -509097
832426781896615936 -242519 -326473 -336522 -509103
832426781914824320 -242259 -326402 -336402 -509068
832426781933032576 -242110 -326279 -336353 -509096
832426781951240960 -241765 -326164 -336233 -509068
832426781969449216 -241525 -326000 -336140 -509081
832426781987657472 -241335 -325907 -336098 -509085
832426782005865856 -241215 -325819 -336015 -509096
832426782024074112 -241219 -325817 -335959 -509125
832426782042282496 -241164 -325792 -335923 -509120
832426782060490752 -241057 -325763 -335948 -509126
832426782078699136 -240946 -325692 -335935 -509122
832426782096907392 -240922 -325647 -335938 -509115
832426782115115648 -240803 -325566 -335833 -509098
832426782133324060 -240633 -325497 -335807 -509081
832426782151533696 -240366 -325432 -335728 -509066
832426782169743360 -240061 -325250 -335625 -509108
832426782187953024 -239726 -325087 -335454 -509067
832426782206162688 -239380 -324887 -335300 -509092
832426782224372352 -239007 -324680 -335147 -509090
832426782242582016 -238873 -324628 -335115 -509106
832426782260791680 -238872 -324696 -335193 -509070
832426782279001216 -239189 -324742 -335271 -509062
832426782297210880 -239626 -325032 -335446 -509116
832426782315420544 -240188 -325282 -335642 -509110
832426782333630208 -240963 -325638 -335879 -509069
832426782351839872 -241503 -325960 -336134 -509051
832426782370049536 -242038 -326235 -336351 -509104
832426782388259200 -242546 -326531 -336513 -509086
832426782406468864 -243046 -326821 -336654 -509049
832426782424678528 -243293 -326912 -336823 -509060
832426782442888192 -243493 -327119 -336923 -509101
832426782461097856 -243530 -327138 -336960 -509065
832426782479307520 -243650 -327065 -336933 -509032
832426782497517184 -243527 -327030 -336914 -509072
832426782515726848 -243422 -327006 -336894 -509052
832426782533936384 -243190 -326796 -336703 -509029
832426782552146048 -242798 -326689 -336629 -509055
832426782570355712 -242429 -326484 -336458 -509049
832426782588565376 -242114 -326309 -336347 -509084
832426782606775040 -241798 -326095 -336147 -509003
832426782624984704 -241625 -326039 -336154 -509131
832426782643194368 -241353 -325898 -336101 -509086
832426782661404032 -241152 -325765 -335992 -509023
832426782679613696 -241111 -325713 -335946 -509038
832426782697823360 -241161 -325812 -335986 -509018
832426782716033024 -241238 -325847 -336056 -509081
832426782734242688 -241317 -325837 -336072 -509092
832426782752452352 -241145 -325812 -335981 -509038
832426782770661976 -241014 -325696 -335896 -509055
832426782788871296 -240741 -325586 -335779 -509107
832426782807080576 -240372 -325405 -335721 -509068
832426782825289728 -240184 -325301 -335630 -509100
832426782843499008 -239836 -325108 -335475 -509081
832426782861708160 -239532 -324893 -335336 -509051
832426782879917440 -239225 -324727 -335180 -509047
832426782898126592 -238918 -324611 -335069 -509089
832426782916335872 -238968 -324593 -335078 -509051
832426782934545024 -239145 -324694 -335171 -509058
832426782952754304 -239399 -324896 -335300 -509053
832426782970963456 -239888 -325153 -335487 -509084
832426782989172736 -240439 -325443 -335739 -509094
832426783007381888 -241058 -325747 -335975 -509130
832426783025591168 -241613 -326062 -336152 -509105
832426783043800320 -242173 -326374 -336343 -509056
832426783062009600 -242692 -326619 -336625 -509082
832426783080218752 -243156 -326910 -336768 -509115
832426783098428032 -243524 -327084 -336933 -509052
832426783116637184 -243765 -327165 -336927 -509063
832426783134846464 -243880 -327269 -337032 -509103
832426783153055616 -243787 -327194 -336998 -509080
832426783171264896 -243543 -327108 -336921 -509105
832426783189474048 -243290 -326955 -336802 -509085
832426783207683328 -242925 -326762 -336719 -509063
832426783225892608 -242612 -326589 -336541 -509031
832426783244101760 -242270 -326394 -336435 -509037
832426783262311040 -242048 -326279 -336382 -509082
832426783280520192 -241764 -326094 -336219 -509063
832426783298729472 -241648 -326081 -336185 -509099
832426783316938624 -241516 -325999 -336148 -509113
832426783335147904 -241354 -325926 -336062 -509038
832426783353357056 -241278 -325863 -336018 -509090
832426783371566336 -241182 -325807 -335974 -509085
832426783389775488 -241118 -325788 -335989 -509100
832426783407984632 -241035 -325753 -335965 -509037
832426783426193152 -240882 -325701 -335881 -509073
832426783444401664 -240752 -325580 -335786 -509014
832426783462610304 -240562 -325450 -335721 -509065
832426783480818816 -240303 -325355 -335704 -509076
832426783499027456 -240087 -325233 -335557 -509087
832426783517235968 -239929 -325125 -335502 -509123
832426783535444480 -239485 -324975 -335363 -509071
832426783553653120 -239110 -324711 -335229 -509075
832426783571861632 -238942 -324631 -335147 -509128
832426783590070272 -238892 -324634 -335104 -509054
832426783608278784 -239095 -324747 -335203 -509075
832426783626487296 -239445 -324933 -335366 -509081
832426783644695936 -239973 -325253 -335552 -509072
832426783662904448 -240662 -325524 -335778 -509093
832426783681113088 -241263 -325801 -336021 -509013
832426783699321600 -241937 -326239 -336308 -509117
832426783717530240 -242550 -326567 -336575 -509076
832426783735738752 -243022 -326757 -336727 -509032
832426783753947264 -243372 -326980 -336906 -509104
832426783772155904 -243598 -327060 -336921 -509114
832426783790364416 -243647 -327128 -336972 -509103
832426783808573056 -243681 -327162 -337005 -509060
832426783826781568 -243587 -327075 -336988 -509106
832426783844990080 -243400 -326959 -336857 -509111
832426783863198720 -243111 -326832 -336752 -509091
832426783881407232 -242830 -326700 -336632 -509088
832426783899615872 -242600 -326558 -336602 -509072
832426783917824384 -242329 -326476 -336522 -509101
832426783936032896 -241947 -326246 -336327 -509074
832426783954241536 -241727 -326129 -336208 -509089
832426783972450048 -241464 -326016 -336079 -509036
832426783990658688 -241328 -325914 -336053 -509076
832426784008867200 -241199 -325836 -336031 -509082
832426784027075712 -241122 -325795 -335980 -509068
832426784045284352 -241196 -325799 -335968 -509141
832426784063492864 -241119 -325740 -335977 -509143
832426784081701504 -241117 -325779 -335992 -509075
832426784099910016 -241024 -325723 -335920 -509038
832426784118118642 -240892 -325671 -335869 -509079
832426784136326528 -240606 -325568 -335824 -509130
832426784154534400 -240308 -325451 -335746 -509116
832426784172742400 -240014 -325240 -335574 -509077
832426784190950272 -239663 -325046 -335465 -509126
832426784209158144 -239327 -324813 -335295 -509099
832426784227366016 -239007 -324695 -335179 -509114
832426784245574016 -238853 -324605 -335133 -509083
832426784263781888 -238986 -324634 -335179 -509106
832426784281989760 -239349 -324784 -335277 -509083
832426784300197632 -239805 -325034 -335489 -509081
832426784318405632 -240424 -325402 -335716 -509120
832426784336613504 -240991 -325700 -335934 -509087
832426784354821376 -241509 -325937 -336087 -509055
832426784373029248 -242070 -326226 -336327 -509097
832426784391237248 -242637 -326555 -336625 -509089
832426784409445120 -243013 -326804 -336748 -509079
832426784427652992 -243382 -327039 -336892 -509135
832426784445860864 -243661 -327042 -336993 -509083
832426784464068864 -243748 -327139 -337041 -509071
832426784482276736 -243764 -327131 -337043 -509088
832426784500484608 -243667 -327115 -336967 -509068
832426784518692480 -243394 -326973 -336889 -509074
832426784536900480 -243050 -326821 -336735 -509049
832426784555108352 -242757 -326699 -336644 -509089
832426784573316224 -242348 -326474 -336461 -509057
832426784591524096 -242042 -326303 -336363 -509076
832426784609732096 -241698 -326116 -336212 -509126
832426784627939968 -241449 -325976 -336126 -509037
832426784646147840 -241347 -325876 -336049 -509079
832426784664355712 -241253 -325851 -336020 -509084
832426784682563712 -241258 -325867 -336015 -509058
832426784700771584 -241302 -325855 -335989 -509075
832426784718979456 -241209 -325848 -336007 -509099
832426784737187328 -241133 -325735 -335939 -509081
832426784755395328 -241016 -325719 -335935 -509060
832426784773603200 -240824 -325610 -335869 -509081
832426784791811122 -240664 -325530 -335828 -509092
832426784810019456 -240380 -325341 -335667 -509165
832426784828227840 -240033 -325243 -335567 -509141
832426784846436224 -239852 -325147 -335449 -509122
832426784864644608 -239521 -324938 -335321 -509074
832426784882852992 -239316 -324840 -335264 -509105
832426784901061504 -239088 -324662 -335155 -509071
832426784919269888 -238964 -324638 -335166 -509022
832426784937478272 -239108 -324675 -335193 -509005
832426784955686656 -239470 -324894 -335308 -509056
832426784973895040 -239884 -325155 -335456 -509069
832426784992103424 -240486 -325515 -335746 -509068
832426785010311808 -241015 -325709 -335901 -509066
832426785028520192 -241614 -326043 -336108 -509068
832426785046728704 -242198 -326417 -336398 -509101
832426785064937088 -242782 -326762 -336653 -509050
832426785083145472 -243305 -326990 -336819 -509038
832426785101353856 -243634 -327147 -336945 -509096
832426785119562240 -243750 -327198 -337030 -509108
832426785137770624 -243794 -327233 -337013 -509106
832426785155979008 -243658 -327099 -336997 -509098
832426785174187392 -243474 -326993 -336894 -509042
832426785192395904 -243140 -326879 -336723 -508991
832426785210604288 -242850 -326712 -336642 -509067
832426785228812672 -242507 -326506 -336515 -509052
832426785247021056 -242228 -326337 -336396 -509005
832426785265229440 -242022 -326314 -336359 -509055
832426785283437824 -241829 -326201 -336276 -509049
832426785301646208 -241619 -326037 -336191 -509101
832426785319854592 -241426 -325960 -336102 -509094
832426785338063104 -241318 -325869 -336141 -509143
832426785356271488 -241293 -325898 -336078 -509117
832426785374479872 -241177 -325868 -336035 -509104
832426785392688256 -241168 -325781 -336004 -509096
832426785410896640 -240969 -325721 -335975 -509096
832426785429105024 -240915 -325633 -335922 -509101
832426785447313408 -240864 -325627 -335881 -509096
832426785465521916 -240647 -325519 -335797 -509113
832426785483730432 -240427 -325416 -335699 -509116
832426785501938944 -240104 -325225 -335540 -509058
832426785520147584 -239738 -325030 -335397 -509058
832426785538356096 -239314 -324857 -335298 -509155
832426785556564736 -239024 -324670 -335162 -509093
832426785574773248 -238861 -324620 -335045 -509065
832426785592981760 -238841 -324660 -335138 -509110
832426785611190400 -239082 -324736 -335213 -509076
832426785629398912 -239561 -324977 -335403 -509059
832426785647607552 -240126 -325233 -335564 -509065
832426785665816064 -240852 -325626 -335909 -509111
832426785684024704 -241537 -326093 -336209 -509023
832426785702233216 -242059 -326287 -336306 -509021
832426785720441728 -242648 -326602 -336548 -509102
832426785738650368 -243135 -326894 -336784 -509142
832426785756858880 -243327 -327015 -336811 -509094
832426785775067520 -243533 -327143 -336906 -509072
832426785793276032 -243605 -327120 -336915 -509045
832426785811484544 -243605 -327125 -336943 -509072
