TIMESTAMP PPG0 PPG1 PPG2 AMBIENT
832426875201026944 -249951 -333205 -341703 -509101
832426875219208704 -250041 -333209 -341851 -509107
832426875237390592 -250048 -333257 -341851 -509152
832426875255572352 -250009 -333238 -341825 -509094
832426875273754240 -249994 -333259 -341810 -509133
832426875291936000 -249898 -333207 -341739 -509100
832426875310117888 -249867 -333219 -341761 -509045
832426875328299648 -249809 -333161 -341665 -509069
832426875346481536 -249776 -333100 -341626 -509060
832426875364663296 -249822 -333125 -341738 -509077
832426875382845184 -249874 -333204 -341715 -509039
832426875401026944 -249864 -333155 -341710 -509049
832426875419208704 -250038 -333221 -341839 -509133
832426875437390592 -250080 -333307 -341818 -509140
832426875455572352 -250084 -333372 -341838 -509093
832426875473754240 -249932 -333226 -341769 -509053
832426875491936000 -249939 -333228 -341814 -509102
832426875510117888 -249869 -333146 -341713 -509003
832426875528299648 -249869 -333176 -341781 -508996
832426875546481536 -249897 -333190 -341775 -509063
832426875564663296 -249934 -333290 -341786 -509033
832426875582845184 -250005 -333259 -341762 -509055
832426875601026944 -250075 -333314 -341886 -509086
832426875619208704 -250147 -333348 -341966 -509063
832426875637390592 -250174 -333355 -341817 -508995
832426875655572352 -250111 -333305 -341859 -509080
832426875673754240 -250043 -333280 -341892 -509098
832426875691936000 -250011 -333306 -341801 -509119
832426875710117888 -249944 -333250 -341772 -509096
832426875728299648 -249897 -333193 -341766 -509105
832426875746481536 -249917 -333228 -341754 -509097
832426875764663296 -250008 -333261 -341858 -509118
832426875782845184 -250071 -333275 -341853 -509094
832426875801026944 -250160 -333339 -341871 -509086
832426875819208704 -250103 -333389 -341885 -509069
832426875837390592 -250120 -333269 -341791 -509091
832426875855572352 -250100 -333251 -341737 -509081
832426875873754240 -249991 -333259 -341857 -509092
832426875891936000 -249993 -333276 -341864 -509139
832426875910117856 -249957 -333272 -341827 -509086
832426875928329088 -249931 -333218 -341838 -509110
832426875946540288 -249936 -333293 -341810 -509160
832426875964751360 -249976 -333199 -341825 -509114
832426875982962560 -250075 -333268 -341869 -509120
832426876001173760 -250140 -333329 -341858 -509114
832426876019384832 -250116 -333349 -341831 -509065
832426876037596032 -250062 -333338 -341868 -509069
832426876055807104 -250081 -333331 -341823 -509156
832426876074018304 -250029 -333324 -341816 -509079
832426876092229504 -250033 -333276 -341821 -509140
832426876110440576 -250020 -333240 -341843 -509089
832426876128651776 -249926 -333237 -341868 -509082
832426876146862976 -249995 -333248 -341870 -509070
832426876165074048 -249994 -333253 -341826 -509072
832426876183285248 -250078 -333247 -341839 -509094
832426876201496320 -250148 -333350 -341890 -509079
832426876219707520 -250117 -333301 -341870 -509069
832426876237918720 -250071 -333299 -341826 -509037
832426876256129792 -250044 -333291 -341785 -509093
832426876274340992 -250002 -333294 -341818 -509069
832426876292552192 -250016 -333331 -341906 -509144
832426876310763264 -249860 -333241 -341802 -509066
832426876328974464 -249886 -333224 -341786 -509047
832426876347185536 -249988 -333245 -341836 -509047
832426876365396736 -250049 -333253 -341850 -509058
832426876383607936 -250113 -333313 -341867 -509043
832426876401819008 -250166 -333371 -341921 -509072
832426876420030208 -250128 -333315 -341862 -509054
832426876438241408 -250059 -333307 -341871 -509043
832426876456452480 -250085 -333361 -341856 -509087
832426876474663680 -250065 -333271 -341865 -509137
832426876492874752 -249962 -333290 -341799 -509093
832426876511085952 -249894 -333200 -341776 -509120
832426876529297152 -249985 -333264 -341809 -509158
832426876547508224 -250011 -333270 -341846 -509090
832426876565719424 -250019 -333324 -341846 -509080
832426876583930624 -250072 -333318 -341860 -509081
832426876602141696 -250163 -333326 -341894 -509092
832426876620352896 -250041 -333318 -341880 -509060
832426876638563968 -249977 -333297 -341837 -509080
832426876656775168 -250006 -333230 -341835 -509056
832426876674986368 -250004 -333320 -341906 -509080
832426876693197440 -250004 -333204 -341841 -509077
832426876711408640 -249956 -333204 -341793 -509098
832426876729619840 -249943 -333243 -341800 -509091
832426876747830850 -250014 -333310 -341846 -509161
832426876766043136 -250115 -333364 -341830 -509106
832426876784255360 -250187 -333418 -341856 -509117
832426876802467584 -250166 -333354 -341872 -509122
832426876820679808 -250163 -333281 -341851 -509069
832426876838892160 -249452 -332999 -341630 -509054
832426876857104384 -248528 -332511 -341265 -509054
832426876875316608 -247670 -332056 -340902 -509060
832426876893528832 -247009 -331764 -340695 -509081
832426876911741056 -246748 -331615 -340591 -509125
832426876929953280 -246733 -331655 -340649 -509128
832426876948165632 -247044 -331736 -340738 -509101
832426876966377856 -247473 -331977 -340851 -509070
832426876984590080 -248050 -332274 -341058 -509081
832426877002802304 -248661 -332577 -341319 -509101
832426877021014528 -249181 -332886 -341534 -509071
832426877039226752 -249801 -333213 -341755 -509088
832426877057439104 -250312 -333463 -341972 -509135
832426877075651328 -250674 -333684 -342083 -509151
832426877093863552 -250944 -333805 -342205 -509123
832426877112075776 -251166 -333941 -342273 -509177
832426877130288000 -251258 -333971 -342279 -509152
832426877148500224 -251314 -334007 -342295 -509046
832426877166712576 -251270 -333934 -342321 -509070
832426877184924800 -251134 -333821 -342217 -509041
832426877203137024 -250807 -333701 -342211 -509105
832426877221349248 -250452 -333484 -342005 -509086
832426877239561472 -250156 -333294 -341847 -509117
832426877257773696 -249783 -333142 -341743 -509144
832426877275986048 -249436 -332967 -341668 -509089
832426877294198272 -249122 -332895 -341592 -509093
832426877312410496 -248999 -332821 -341517 -509130
832426877330622720 -248905 -332833 -341532 -509195
832426877348834944 -248921 -332745 -341452 -509102
832426877367047176 -249026 -332795 -341529 -509102
832426877385259520 -249008 -332795 -341541 -509151
832426877403471872 -248965 -332740 -341500 -509069
832426877421684096 -248864 -332711 -341453 -509108
832426877439896448 -248654 -332644 -341372 -509104
832426877458108672 -248477 -332560 -341312 -509145
832426877476321024 -248200 -332352 -341188 -509090
832426877494533248 -247911 -332201 -341100 -509133
832426877512745600 -247653 -332061 -340993 -509124
832426877530957824 -247385 -331925 -340912 -509121
832426877549170176 -247091 -331763 -340746 -509148
832426877567382528 -246786 -331598 -340665 -509070
832426877585594752 -246773 -331717 -340704 -509118
832426877603807104 -246936 -331720 -340758 -509102
832426877622019328 -247232 -331938 -340843 -509092
832426877640231680 -247702 -332160 -341061 -509080
832426877658443904 -248192 -332412 -341232 -509126
832426877676656256 -248734 -332682 -341404 -509123
832426877694868480 -249249 -332921 -341614 -509097
832426877713080832 -249858 -333217 -341838 -509076
832426877731293056 -250459 -333474 -342051 -509099
832426877749505408 -250973 -333715 -342280 -509117
832426877767717760 -251324 -333928 -342359 -509133
832426877785929984 -251475 -334005 -342368 -509089
832426877804142336 -251464 -334028 -342399 -509103
832426877822354560 -251373 -334060 -342320 -509137
832426877840566912 -251291 -333946 -342291 -509155
832426877858779136 -250999 -333879 -342300 -509145
832426877876991488 -250637 -333649 -342075 -509094
832426877895203712 -250262 -333447 -341954 -509109
832426877913416064 -249941 -333330 -341828 -509050
832426877931628416 -249748 -333213 -341721 -509096
832426877949840640 -249510 -333091 -341707 -509059
832426877968052992 -249416 -333057 -341657 -509105
832426877986265216 -249196 -332922 -341552 -509092
832426878004477568 -249036 -332842 -341479 -509072
832426878022689778 -248996 -332828 -341487 -509064
832426878040902144 -248993 -332787 -341438 -509104
832426878059114496 -248974 -332811 -341469 -509133
832426878077326848 -248823 -332719 -341432 -509119
832426878095539200 -248748 -332634 -341423 -509122
832426878113751552 -248552 -332530 -341351 -509102
832426878131963904 -248460 -332535 -341340 -509144
832426878150176256 -248218 -332367 -341216 -509102
832426878168388608 -248026 -332315 -341163 -509141
832426878186600960 -247704 -332120 -341072 -509098
832426878204813440 -247263 -331902 -340886 -509185
832426878223025792 -246961 -331768 -340720 -509153
832426878241238144 -246685 -331602 -340635 -509110
832426878259450496 -246815 -331709 -340717 -509124
832426878277662848 -247010 -331732 -340702 -509153
832426878295875200 -247292 -331936 -340866 -509090
832426878314087552 -247840 -332193 -341141 -509089
832426878332299904 -248459 -332539 -341314 -509054
832426878350512256 -249202 -332841 -341541 -509059
832426878368724608 -249879 -333187 -341806 -509102
832426878386936960 -250391 -333521 -342032 -509135
832426878405149312 -250768 -333695 -342157 -509092
832426878423361664 -251180 -333876 -342314 -509107
832426878441574016 -251423 -334016 -342404 -509103
832426878459786368 -251478 -334055 -342327 -509080
832426878477998720 -251391 -334001 -342389 -509161
832426878496211200 -251282 -333965 -342376 -509119
832426878514423552 -251105 -333873 -342304 -509122
832426878532635904 -250865 -333712 -342179 -509083
832426878550848256 -250639 -333634 -342158 -509058
832426878569060608 -250350 -333552 -342011 -509090
832426878587272960 -250039 -333321 -341915 -509069
832426878605485312 -249678 -333179 -341801 -509092
832426878623697664 -249477 -333032 -341662 -509093
832426878641910016 -249255 -332879 -341539 -509118
832426878660122368 -249129 -332906 -341555 -509104
832426878678334720 -248900 -332736 -341457 -509082
832426878696547072 -248897 -332756 -341510 -509118
832426878714759424 -248959 -332745 -341458 -509092
832426878732971814 -249023 -332787 -341514 -509047
832426878751183616 -249064 -332889 -341583 -509170
832426878769395456 -248968 -332862 -341519 -509052
832426878787607296 -248778 -332706 -341450 -509075
832426878805819136 -248482 -332555 -341313 -509068
832426878824030848 -248260 -332459 -341256 -509123
832426878842242688 -247986 -332375 -341170 -509110
832426878860454528 -247645 -332155 -341051 -509176
832426878878666368 -247267 -331990 -340954 -509143
832426878896878208 -246940 -331795 -340788 -509092
832426878915090048 -246926 -331773 -340779 -509131
832426878933301888 -247170 -331906 -340877 -509117
832426878951513728 -247543 -332101 -340984 -509108
832426878969725440 -247931 -332283 -341210 -509108
832426878987937280 -248293 -332475 -341235 -509072
832426879006149120 -248987 -332853 -341497 -509073
832426879024360960 -249520 -333144 -341788 -509128
832426879042572800 -250089 -333434 -342022 -509111
832426879060784640 -250612 -333662 -342152 -509088
832426879078996480 -250975 -333848 -342303 -509133
832426879097208192 -251346 -334024 -342450 -509170
832426879115420032 -251575 -334162 -342485 -509121
832426879133631872 -251701 -334160 -342508 -509022
832426879151843712 -251762 -334167 -342501 -509085
832426879170055552 -251561 -334095 -342419 -509125
832426879188267392 -251284 -333985 -342374 -509133
832426879206479232 -250907 -333798 -342187 -509122
832426879224690944 -250665 -333704 -342126 -509123
832426879242902784 -250311 -333549 -342046 -509074
832426879261114624 -250016 -333341 -341930 -509126
832426879279326464 -249690 -333169 -341828 -509114
832426879297538304 -249492 -333074 -341714 -509114
832426879315750144 -249462 -333056 -341760 -509105
832426879333961984 -249431 -333029 -341724 -509117
832426879352173824 -249444 -332996 -341647 -509092
832426879370385536 -249228 -332989 -341622 -509087
832426879388597376 -249185 -332930 -341639 -509105
832426879406809254 -249156 -332950 -341611 -509122
832426879425021184 -249065 -332947 -341619 -509134
832426879443233152 -248916 -332837 -341557 -509122
832426879461445120 -248642 -332577 -341429 -509159
832426879479657088 -248356 -332460 -341314 -509139
832426879497869184 -248103 -332339 -341218 -509059
832426879516081152 -247812 -332218 -341097 -509046
832426879534293120 -247628 -332082 -341006 -509076
832426879552505088 -247342 -332023 -340918 -509086
832426879570717056 -247043 -331874 -340856 -509104
832426879588929024 -246969 -331861 -340870 -509110
832426879607141120 -247217 -331919 -340920 -509121
832426879625353088 -247553 -332145 -341066 -509084
832426879643565056 -248074 -332380 -341198 -509104
832426879661777024 -248594 -332630 -341425 -509131
832426879679988992 -249184 -332901 -341600 -509135
832426879698200960 -249736 -333199 -341811 -509089
832426879716412928 -250403 -333557 -342015 -509107
832426879734625024 -251045 -333866 -342333 -509152
832426879752836992 -251385 -334037 -342435 -509141
832426879771048960 -251523 -334183 -342516 -509111
832426879789260928 -251625 -334246 -342580 -509050
832426879807472896 -251660 -334257 -342579 -509087
832426879825684864 -251560 -334139 -342535 -509083
832426879843896960 -251368 -334070 -342441 -509038
832426879862108928 -251138 -333938 -342314 -509104
832426879880320896 -250816 -333747 -342222 -509106
832426879898532864 -250554 -333597 -342076 -509087
832426879916744832 -250336 -333530 -342050 -509099
832426879934956800 -250126 -333405 -341907 -509050
832426879953168768 -249876 -333213 -341865 -509080
832426879971380864 -249604 -333100 -341759 -509053
832426879989592832 -249491 -333133 -341748 -509099
832426880007804800 -249288 -332983 -341670 -509087
832426880026016768 -249321 -333005 -341650 -509144
832426880044228736 -249161 -332972 -341608 -509124
832426880062440704 -249156 -332870 -341588 -509101
832426880080652800 -249170 -332949 -341581 -509074
832426880098864896 -249011 -332890 -341596 -509065
832426880117076992 -249001 -332862 -341563 -509049
832426880135289088 -248843 -332750 -341471 -509105
832426880153501056 -248471 -332553 -341367 -509091
832426880171713152 -248189 -332399 -341291 -509094
832426880189925248 -247856 -332231 -341130 -509141
832426880208137344 -247483 -332068 -340981 -509161
832426880226349440 -247162 -331955 -340928 -509093
832426880244561408 -246932 -331790 -340795 -509081
832426880262773504 -247028 -331809 -340855 -509068
832426880280985600 -247323 -331936 -340956 -509088
832426880299197696 -247772 -332187 -341141 -509089
832426880317409792 -248372 -332514 -341341 -509135
832426880335621760 -248973 -332886 -341581 -509115
832426880353833856 -249531 -333138 -341784 -509140
832426880372045952 -250048 -333429 -341932 -509084
832426880390258048 -250576 -333742 -342164 -509094
832426880408470144 -250997 -333954 -342280 -509088
832426880426682112 -251404 -334127 -342452 -509089
832426880444894208 -251556 -334163 -342518 -509083
832426880463106304 -251615 -334215 -342504 -509085
832426880481318400 -251670 -334251 -342515 -509073
832426880499530496 -251617 -334168 -342516 -509070
832426880517742464 -251535 -334155 -342510 -509113
832426880535954560 -251220 -333961 -342387 -509110
832426880554166656 -250845 -333775 -342219 -509076
832426880572378752 -250471 -333620 -342118 -509064
832426880590590848 -250179 -333483 -342025 -509037
832426880608802816 -249913 -333331 -341902 -509119
832426880627014912 -249647 -333219 -341811 -509070
832426880645227008 -249403 -333028 -341697 -509084
832426880663439104 -249301 -333019 -341756 -509080
832426880681651200 -249340 -333013 -341719 -509097
832426880699863168 -249299 -332985 -341728 -509069
832426880718075264 -249349 -333000 -341691 -509035
832426880736287360 -249301 -332990 -341689 -509064
832426880754499396 -249238 -332941 -341637 -509085
832426880772711040 -249041 -332896 -341573 -509088
832426880790922624 -248808 -332793 -341562 -509107
832426880809134336 -248571 -332660 -341415 -509103
832426880827345920 -248232 -332525 -341308 -509065
832426880845557504 -247918 -332306 -341180 -509098
832426880863769088 -247674 -332160 -341052 -509094
832426880881980800 -247383 -331974 -340976 -509109
832426880900192384 -247127 -331853 -340906 -509101
832426880918403968 -247209 -331885 -340928 -509139
832426880936615552 -247343 -331950 -340968 -509128
832426880954827264 -247609 -332090 -341068 -509077
832426880973038848 -248000 -332336 -341193 -509130
832426880991250432 -248576 -332644 -341509 -509172
832426881009462016 -249172 -332893 -341640 -509079
832426881027673728 -249675 -333172 -341824 -509106
832426881045885312 -250229 -333499 -341993 -509062
832426881064096896 -250789 -333785 -342217 -509101
832426881082308480 -251200 -333970 -342322 -509085
832426881100520192 -251568 -334182 -342484 -509118
832426881118731776 -251828 -334254 -342584 -509124
832426881136943360 -251860 -334310 -342633 -509099
832426881155154944 -251756 -334230 -342563 -509074
832426881173366656 -251593 -334189 -342546 -509145
832426881191578240 -251256 -333997 -342402 -509088
832426881209789824 -250907 -333769 -342286 -509081
832426881228001408 -250543 -333623 -342144 -509103
832426881246213120 -250326 -333517 -342062 -509094
832426881264424704 -250017 -333351 -341963 -509028
832426881282636288 -249781 -333279 -341876 -509069
832426881300847872 -249650 -333104 -341771 -509054
832426881319059584 -249469 -333099 -341723 -509104
832426881337271168 -249445 -333076 -341761 -509151
832426881355482752 -249348 -333050 -341701 -509115
832426881373694360 -249224 -333013 -341692 -509131
832426881391905152 -249236 -332983 -341686 -509071
832426881410115968 -249124 -332958 -341657 -509050
832426881428326912 -248991 -332873 -341608 -509113
832426881446537728 -248851 -332769 -341554 -509093
832426881464748672 -248674 -332683 -341457 -509163
832426881482959488 -248523 -332660 -341395 -509128
832426881501170432 -248341 -332502 -341343 -509048
832426881519381248 -248007 -332336 -341240 -509067
832426881537592192 -247622 -332156 -341096 -509086
832426881555803008 -247238 -331984 -340976 -509103
832426881574013824 -247029 -331852 -340845 -509111
832426881592224768 -247033 -331899 -340881 -509094
832426881610435584 -247315 -332019 -340957 -509094
832426881628646528 -247676 -332192 -341040 -509073
832426881646857344 -248146 -332408 -341243 -509083
832426881665068288 -248831 -332726 -341487 -509063
832426881683279104 -249410 -333058 -341684 -509091
832426881701490048 -250084 -333371 -341911 -509104
832426881719700864 -250600 -333692 -342135 -509068
832426881737911680 -251113 -333926 -342302 -509069
832426881756122624 -251382 -334053 -342445 -509109
832426881774333440 -251635 -334208 -342533 -509134
832426881792544384 -251736 -334208 -342551 -509068
832426881810755200 -251637 -334192 -342516 -509119
832426881828966144 -251595 -334158 -342485 -509033
832426881847176960 -251418 -334151 -342443 -509040
832426881865387904 -251259 -334031 -342386 -509072
832426881883598720 -250983 -333889 -342339 -509064
832426881901809536 -250775 -333788 -342245 -509136
832426881920020480 -250446 -333628 -342104 -509041
832426881938231296 -250091 -333382 -341993 -509103
832426881956442240 -249763 -333223 -341839 -509092
832426881974653056 -249586 -333123 -341748 -509069
832426881992864000 -249405 -333084 -341711 -509117
832426882011074816 -249235 -332968 -341655 -509020
832426882029285760 -249173 -332962 -341602 -509050
832426882047496576 -249171 -332988 -341686 -509116
832426882065707392 -249236 -332995 -341692 -509131
832426882083918400 -249269 -333008 -341641 -509060
832426882102128384 -249215 -332919 -341631 -509033
832426882120338432 -249008 -332856 -341565 -509072
832426882138548608 -248686 -332692 -341506 -509080
832426882156758656 -248429 -332552 -341351 -509113
832426882174968704 -248038 -332407 -341216 -509026
832426882193178880 -247718 -332240 -341120 -509122
832426882211388928 -247348 -332036 -340990 -509116
832426882229598976 -247062 -331959 -340845 -509087
832426882247809152 -247041 -331924 -340827 -509092
832426882266019200 -247251 -331957 -340865 -509087
832426882284229248 -247626 -332160 -341087 -509133
832426882302439424 -248032 -332372 -341171 -509130
832426882320649472 -248558 -332642 -341420 -509134
832426882338859520 -249168 -332949 -341600 -509107
832426882357069696 -249682 -333221 -341755 -509082
832426882375279744 -250197 -333514 -342058 -509109
832426882393489792 -250725 -333758 -342144 -509113
832426882411699968 -251119 -333930 -342349 -509120
832426882429910016 -251456 -334143 -342513 -509140
832426882448120064 -251721 -334244 -342538 -509031
832426882466330240 -251864 -334335 -342637 -509092
832426882484540288 -251938 -334390 -342700 -509174
832426882502750336 -251772 -334296 -342573 -509102
832426882520960512 -251496 -334184 -342465 -509123
832426882539170560 -251170 -333948 -342319 -509131
832426882557380608 -250784 -333823 -342273 -509118
832426882575590784 -250473 -333637 -342096 -509125
832426882593800832 -250179 -333476 -342059 -509105
832426882612010880 -249802 -333304 -341880 -509031
832426882630221056 -249672 -333220 -341843 -509098
832426882648431104 -249571 -333171 -341803 -509106
832426882666641152 -249580 -333122 -341770 -509182
832426882684851328 -249517 -333132 -341794 -509094
832426882703061376 -249464 -333050 -341786 -509160
832426882721271424 -249371 -332962 -341662 -509122
832426882739481600 -249264 -332918 -341658 -509113
832426882757691648 -249181 -333026 -341670 -509155
832426882775901696 -248945 -332846 -341528 -509081
832426882794111934 -248699 -332763 -341458 -509120
832426882812322560 -248462 -332627 -341372 -509091
832426882830533248 -248240 -332503 -341308 -509145
832426882848743936 -247995 -332365 -341263 -509174
832426882866954624 -247773 -332217 -341136 -509088
832426882885165440 -247453 -332071 -341111 -509107
832426882903376128 -247142 -331925 -340892 -509115
832426882921586816 -247198 -331928 -340891 -509106
832426882939797504 -247373 -332063 -340973 -509091
832426882958008192 -247629 -332201 -341092 -509064
832426882976218880 -248064 -332444 -341294 -509135
832426882994429696 -248647 -332665 -341461 -509063
832426883012640384 -249221 -332952 -341669 -509103
832426883030851072 -249845 -333253 -341923 -509049
832426883049061760 -250465 -333586 -342091 -509122
832426883067272448 -251050 -333866 -342283 -509130
832426883085483136 -251462 -334079 -342386 -509046
832426883103693952 -251731 -334292 -342564 -509062
832426883121904640 -251772 -334247 -342608 -509063
832426883140115328 -251802 -334309 -342683 -509098
832426883158326016 -251761 -334267 -342600 -509092
832426883176536704 -251583 -334192 -342543 -509080
832426883194747392 -251192 -333959 -342408 -509058
832426883212958208 -250938 -333799 -342316 -509056
832426883231168896 -250682 -333692 -342239 -509077
832426883249379584 -250418 -333584 -342153 -509033
832426883267590272 -250187 -333511 -342016 -509090
832426883285800960 -249935 -333436 -341891 -509081
832426883304011648 -249664 -333242 -341813 -509121
832426883322222464 -249571 -333248 -341791 -509143
832426883340433152 -249427 -333175 -341751 -509136
832426883358643840 -249348 -333125 -341765 -509079
832426883376854528 -249345 -333090 -341713 -509077
832426883395065216 -249211 -332991 -341659 -509092
832426883413275904 -249138 -332914 -341621 -509108
832426883431486720 -249127 -332881 -341600 -509072
832426883449697408 -249017 -332819 -341514 -509085
832426883467908178 -248867 -332759 -341531 -509084
832426883486118528 -248590 -332617 -341427 -509080
832426883504328832 -248338 -332541 -341325 -509057
832426883522539136 -247983 -332349 -341208 -509035
832426883540749440 -247662 -332181 -341051 -509090
832426883558959744 -247345 -331981 -340955 -509065
832426883577170048 -247173 -331938 -340872 -509086
832426883595380352 -247106 -331913 -340871 -509110
832426883613590656 -247392 -332006 -341009 -509066
832426883631800960 -247791 -332284 -341144 -509099
832426883650011136 -248425 -332531 -341377 -509103
832426883668221440 -249089 -332914 -341604 -509116
832426883686431744 -249617 -333199 -341822 -509087
832426883704642048 -250141 -333481 -342041 -509104
832426883722852352 -250659 -333741 -342176 -509069
832426883741062656 -251129 -333980 -342362 -509072
832426883759272960 -251436 -334113 -342490 -509058
832426883777483264 -251543 -334236 -342488 -509059
832426883795693568 -251644 -334258 -342529 -509025
832426883813903872 -251706 -334242 -342522 -509056
832426883832114176 -251701 -334250 -342552 -509072
832426883850324480 -251587 -334223 -342527 -509070
832426883868534784 -251327 -333990 -342394 -509034
832426883886745088 -251029 -333834 -342293 -509087
832426883904955392 -250643 -333681 -342158 -509070
832426883923165696 -250276 -333487 -342080 -509066
832426883941376000 -249993 -333400 -341954 -509065
832426883959586304 -249786 -333274 -341903 -509072
832426883977796480 -249495 -333103 -341736 -509045
832426883996006784 -249358 -333019 -341721 -509063
832426884014217088 -249303 -332970 -341645 -509019
832426884032427392 -249323 -332961 -341609 -509032
832426884050637696 -249360 -333016 -341725 -509060
832426884068848000 -249428 -333102 -341749 -509097
832426884087058304 -249279 -332990 -341694 -509092
832426884105268608 -249119 -332889 -341625 -509110
832426884123478912 -248911 -332841 -341605 -509080
832426884141689160 -248675 -332689 -341510 -509062
832426884159900160 -248464 -332493 -341361 -509070
832426884178111104 -248081 -332329 -341177 -509032
832426884196322048 -247719 -332153 -341091 -509048
832426884214532864 -247405 -331997 -340946 -509067
832426884232743808 -247216 -331899 -340861 -509062
832426884250954752 -247231 -331865 -340888 -509081
832426884269165696 -247415 -332068 -340967 -509045
832426884287376512 -247677 -332197 -341077 -509050
832426884305587456 -248098 -332456 -341256 -509090
832426884323798400 -248661 -332684 -341428 -509058
832426884342009344 -249266 -332971 -341650 -509056
832426884360220288 -249763 -333209 -341838 -509079
832426884378431104 -250259 -333530 -342022 -509087
832426884396642048 -250775 -333760 -342253 -509091
832426884414852992 -251231 -334031 -342362 -509057
832426884433063936 -251641 -334258 -342583 -509043
832426884451274752 -251856 -334331 -342691 -509058
832426884469485696 -251955 -334336 -342706 -509052
832426884487696640 -251800 -334293 -342583 -509016
832426884505907584 -251717 -334242 -342585 -509098
832426884524118528 -251445 -334135 -342493 -509081
832426884542329344 -251056 -333979 -342377 -509140
832426884560540288 -250750 -333780 -342272 -509089
832426884578751232 -250368 -333611 -342137 -509101
832426884596962176 -250060 -333453 -342023 -509092
832426884615172992 -249906 -333320 -341922 -509068
832426884633383936 -249767 -333256 -341871 -509076
832426884651594880 -249710 -333239 -341819 -509060
832426884669805824 -249529 -333101 -341725 -509060
832426884688016768 -249434 -333104 -341687 -509035
832426884706227584 -249357 -333034 -341662 -509004
832426884724438528 -249323 -333039 -341696 -509035
832426884742649472 -249296 -333018 -341706 -509042
832426884760860416 -249067 -332884 -341569 -509014
832426884779071232 -248885 -332845 -341508 -509031
832426884797282176 -248774 -332813 -341518 -509064
832426884815493032 -248598 -332675 -341451 -509055
832426884833703296 -248436 -332570 -341380 -509064
832426884851913600 -248242 -332480 -341308 -509064
832426884870123776 -247820 -332229 -341109 -509058
832426884888334080 -247469 -332087 -340957 -509100
832426884906544384 -247233 -331968 -340938 -509111
832426884924754560 -247293 -331986 -340959 -509063
832426884942964864 -247419 -332044 -341017 -509060
832426884961175168 -247736 -332203 -341124 -509088
832426884979385472 -248162 -332407 -341246 -509070
832426884997595648 -248789 -332747 -341500 -509068
832426885015805952 -249498 -333182 -341796 -509115
832426885034016256 -250242 -333549 -342043 -509140
832426885052226432 -250872 -333839 -342270 -509111
832426885070436736 -251226 -334048 -342452 -509150
832426885088647040 -251563 -334131 -342503 -509111
832426885106857216 -251801 -334277 -342550 -509035
832426885125067520 -251901 -334350 -342672 -509082
832426885143277824 -251828 -334362 -342679 -509026
832426885161488128 -251709 -334214 -342556 -509051
832426885179698304 -251533 -334158 -342517 -509048
832426885197908608 -251243 -334004 -342404 -509090
832426885216118912 -251051 -333890 -342330 -509086
832426885234329088 -250828 -333806 -342280 -509107
832426885252539392 -250572 -333651 -342170 -509104
832426885270749696 -250212 -333465 -342058 -509093
832426885288959872 -249919 -333269 -341919 -509068
832426885307170176 -249743 -333179 -341816 -509098
832426885325380480 -249613 -333134 -341795 -509086
832426885343590656 -249499 -333036 -341755 -509099
832426885361800960 -249358 -333058 -341749 -509128
832426885380011264 -249360 -332999 -341737 -509114
832426885398221568 -249345 -333051 -341698 -509086
832426885416431744 -249351 -332987 -341731 -509050
832426885434642048 -249289 -333065 -341714 -509059
832426885452852310 -249152 -332998 -341686 -509069
832426885471063936 -248788 -332783 -341562 -509072
832426885489275520 -248541 -332605 -341433 -509068
832426885507487232 -248253 -332513 -341365 -509113
832426885525698816 -247914 -332365 -341224 -509085
832426885543910400 -247656 -332152 -341079 -509133
832426885562121984 -247212 -331992 -341005 -509107
832426885580333696 -247054 -331956 -340885 -509067
832426885598545280 -247256 -331926 -340909 -509098
832426885616756864 -247633 -332143 -341072 -509117
832426885634968448 -248173 -332517 -341336 -509204
832426885653180160 -248603 -332747 -341499 -509131
832426885671391744 -249211 -332930 -341658 -509120
832426885689603328 -249695 -333229 -341868 -509065
832426885707814912 -250310 -333502 -342072 -509069
832426885726026624 -250812 -333751 -342231 -509046
832426885744238208 -251172 -333965 -342399 -509037
832426885762449792 -251509 -334112 -342490 -509024
832426885780661376 -251717 -334215 -342572 -509045
832426885798873088 -251914 -334306 -342644 -509057
832426885817084672 -251982 -334376 -342682 -509037
832426885835296256 -251928 -334299 -342686 -509075
832426885853507840 -251617 -334164 -342503 -509085
832426885871719552 -251224 -333944 -342432 -509083
832426885889931136 -250912 -333852 -342262 -509046
832426885908142720 -250554 -333716 -342201 -509053
832426885926354304 -250261 -333577 -342087 -509115
832426885944566016 -249999 -333397 -341958 -509075
832426885962777600 -249767 -333281 -341848 -509096
832426885980989184 -249573 -333171 -341717 -509062
832426885999200768 -249517 -333142 -341783 -509059
832426886017412480 -249518 -333155 -341799 -509156
832426886035624064 -249572 -333101 -341776 -509087
832426886053835648 -249426 -333057 -341744 -509024
832426886072047232 -249354 -333023 -341701 -509045
832426886090258944 -249215 -332990 -341679 -509136
832426886108470528 -249125 -332940 -341622 -509105
832426886126682112 -248910 -332863 -341574 -509091
832426886144893738 -248596 -332742 -341548 -509114
832426886163105280 -248297 -332505 -341375 -509058
832426886181316864 -248072 -332368 -341223 -509101
832426886199528576 -247811 -332304 -341126 -509115
832426886217740160 -247515 -332152 -341066 -509077
832426886235951744 -247328 -331981 -340922 -509034
832426886254163328 -247311 -332014 -340957 -509075
832426886272375040 -247406 -332046 -340969 -509072
832426886290586624 -247705 -332221 -341106 -509113
832426886308798208 -248132 -332427 -341302 -509090
832426886327009792 -248766 -332731 -341479 -509081
832426886345221504 -249310 -333017 -341730 -509091
832426886363433088 -249871 -333346 -341956 -509117
832426886381644672 -250493 -333553 -342162 -509079
832426886399856256 -251129 -333931 -342399 -509064
832426886418067968 -251611 -334150 -342549 -509096
832426886436279552 -251777 -334230 -342608 -509067
832426886454491136 -251940 -334378 -342662 -509133
832426886472702720 -251904 -334357 -342672 -509134
832426886490914432 -251760 -334303 -342597 -509085
832426886509126016 -251607 -334255 -342605 -509045
832426886527337600 -251305 -334057 -342423 -509035
832426886545549184 -250962 -333924 -342310 -508984
832426886563760896 -250686 -333752 -342249 -509108
832426886581972480 -250453 -333624 -342140 -509083
832426886600184064 -250253 -333519 -342083 -509120
832426886618395648 -250045 -333404 -341991 -509113
832426886636607360 -249845 -333316 -341931 -509126
832426886654818944 -249692 -333219 -341911 -509081
832426886673030528 -249519 -333117 -341747 -509030
832426886691242112 -249430 -333021 -341745 -509105
832426886709453824 -249428 -333051 -341737 -509098
832426886727665408 -249241 -332992 -341703 -509075
832426886745876992 -249248 -332972 -341701 -509126
832426886764088576 -249164 -332912 -341664 -509097
832426886782300288 -249038 -332873 -341651 -509085
832426886800511872 -248900 -332773 -341594 -509067
832426886818723456 -248732 -332725 -341485 -509113
832426886836935166 -248446 -332615 -341377 -509048
832426886855146112 -248014 -332415 -341212 -509068
832426886873357056 -247714 -332263 -341129 -509065
832426886891568000 -247395 -332120 -341053 -509133
832426886909778816 -247318 -332032 -340933 -509105
832426886927989760 -247235 -332016 -340905 -509057
832426886946200704 -247486 -332172 -341074 -509072
832426886964411648 -247921 -332307 -341206 -509120
832426886982622464 -248459 -332602 -341390 -509052
832426887000833408 -249155 -332938 -341641 -509057
832426887019044352 -249790 -333287 -341869 -509139
832426887037255296 -250353 -333584 -342060 -509064
832426887055466240 -250852 -333815 -342259 -509082
832426887073677056 -251253 -334070 -342438 -509050
832426887091888000 -251558 -334174 -342526 -509049
832426887110098944 -251768 -334320 -342686 -509070
832426887128309888 -251901 -334362 -342688 -509077
832426887146520704 -251804 -334327 -342678 -509128
832426887164731648 -251803 -334325 -342656 -509165
832426887182942592 -251621 -334191 -342487 -509105
832426887201153536 -251422 -334061 -342448 -509084
832426887219364352 -251046 -333941 -342330 -509022
832426887237575296 -250722 -333779 -342214 -509105
832426887255786240 -250426 -333628 -342114 -509105
832426887273997184 -250098 -333438 -341987 -509072
832426887292208128 -249846 -333356 -341932 -509093
832426887310418944 -249709 -333259 -341890 -509091
832426887328629888 -249453 -333108 -341808 -509067
832426887346840832 -249407 -333065 -341806 -509098
832426887365051776 -249465 -333111 -341839 -509047
832426887383262592 -249424 -333078 -341779 -509060
832426887401473536 -249488 -333086 -341835 -509093
832426887419684480 -249445 -333109 -341751 -509060
832426887437895424 -249289 -333032 -341698 -509045
832426887456106368 -249047 -332936 -341599 -509084
832426887474317184 -248787 -332801 -341555 -509042
832426887492528128 -248559 -332683 -341444 -509116
832426887510739026 -248185 -332522 -341308 -509094
832426887528950272 -247857 -332308 -341259 -509046
832426887547161472 -247552 -332178 -341146 -509089
832426887565372800 -247287 -332033 -340999 -509079
832426887583584000 -247278 -332020 -340956 -509017
832426887601795200 -247545 -332149 -341033 -509090
832426887620006528 -247815 -332319 -341213 -509094
832426887638217728 -248226 -332466 -341374 -509100
832426887656428928 -248732 -332731 -341537 -509090
832426887674640256 -249279 -333037 -341723 -509106
832426887692851456 -249835 -333363 -341885 -509093
832426887711062784 -250389 -333646 -342142 -509080
832426887729273984 -250882 -333886 -342346 -509082
832426887747485184 -251370 -334122 -342458 -509083
832426887765696512 -251624 -334258 -342571 -509050
832426887783907712 -251948 -334328 -342674 -509072
832426887802118912 -252155 -334497 -342826 -509113
832426887820330240 -251994 -334489 -342766 -509097
832426887838541440 -251835 -334352 -342675 -509123
832426887856752640 -251568 -334209 -342567 -509087
832426887874963968 -251177 -334026 -342405 -509094
832426887893175168 -250891 -333807 -342260 -509071
832426887911386368 -250549 -333655 -342159 -509102
832426887929597696 -250188 -333496 -342023 -509073
832426887947808896 -249998 -333412 -342021 -509051
832426887966020224 -249834 -333337 -341929 -509104
832426887984231424 -249740 -333245 -341888 -509070
832426888002442624 -249706 -333201 -341864 -509063
832426888020653952 -249540 -333152 -341867 -509076
832426888038865152 -249481 -333106 -341804 -509040
832426888057076352 -249470 -333106 -341789 -509019
832426888075287680 -249323 -333074 -341693 -509056
832426888093498880 -249232 -333030 -341713 -509087
832426888111710080 -249056 -332944 -341608 -509060
832426888129921408 -248852 -332775 -341527 -509055
832426888148132608 -248614 -332760 -341544 -509090
832426888166343808 -248491 -332665 -341504 -509097
832426888184555108 -248235 -332496 -341386 -509070
832426888202766592 -247928 -332314 -341185 -509043
832426888220978048 -247620 -332126 -341062 -509080
832426888239189504 -247310 -332029 -340970 -509098
832426888257400960 -247296 -332052 -341010 -509075
832426888275612416 -247497 -332161 -340998 -509037
832426888293823872 -247824 -332303 -341186 -509064
832426888312035328 -248274 -332568 -341310 -509073
832426888330246784 -248876 -332800 -341558 -509055
832426888348458112 -249527 -333159 -341827 -509109
832426888366669568 -250149 -333473 -342029 -509068
832426888384881024 -250896 -333852 -342330 -509084
832426888403092480 -251327 -334095 -342477 -509088
832426888421303936 -251603 -334206 -342607 -509069
832426888439515392 -251832 -334289 -342675 -509085
832426888457726848 -251950 -334421 -342696 -509065
832426888475938304 -251957 -334401 -342652 -509114
832426888494149760 -251841 -334424 -342684 -509152
832426888512361216 -251672 -334284 -342572 -509101
832426888530572672 -251424 -334186 -342593 -509154
832426888548784128 -251114 -333919 -342409 -509108
832426888566995584 -250844 -333839 -342312 -509114
832426888585207040 -250622 -333767 -342236 -509109
832426888603418368 -250355 -333559 -342126 -509145
832426888621629824 -249968 -333425 -342001 -509100
832426888639841280 -249795 -333346 -341903 -509109
832426888658052736 -249624 -333243 -341831 -509150
832426888676264192 -249502 -333165 -341807 -509106
832426888694475648 -249424 -333121 -341761 -509067
832426888712687104 -249377 -333149 -341784 -509057
832426888730898560 -249334 -333083 -341743 -509080
832426888749110016 -249366 -333100 -341718 -509080
832426888767321472 -249369 -333068 -341742 -509138
832426888785532928 -249322 -333019 -341754 -509138
832426888803744384 -249013 -332869 -341621 -509051
832426888821955840 -248669 -332711 -341534 -509022
832426888840167198 -248367 -332606 -341359 -509050
832426888858378112 -248019 -332374 -341263 -509122
832426888876589056 -247779 -332222 -341142 -509090
832426888894800000 -247278 -332039 -340970 -509009
832426888913010944 -247247 -331966 -340952 -509085
832426888931222016 -247451 -332036 -341037 -509103
832426888949432960 -247704 -332295 -341100 -509088
832426888967643904 -248074 -332438 -341283 -509090
832426888985854848 -248638 -332739 -341472 -509048
832426889004065792 -249210 -333081 -341701 -509051
832426889022276736 -249860 -333391 -341926 -509116
832426889040487680 -250393 -333621 -342119 -509077
832426889058698752 -250870 -333894 -342324 -509029
832426889076909696 -251285 -334064 -342462 -509028
832426889095120640 -251580 -334213 -342569 -509064
832426889113331584 -251748 -334283 -342615 -509013
832426889131542528 -251920 -334371 -342690 -509060
832426889149753472 -252028 -334445 -342795 -509128
832426889167964416 -251966 -334351 -342728 -509126
832426889186175488 -251704 -334288 -342597 -509043
832426889204386432 -251343 -334075 -342469 -509028
832426889222597376 -251083 -333975 -342350 -509059
832426889240808320 -250750 -333791 -342262 -509051
832426889259019264 -250435 -333637 -342144 -509086
832426889277230208 -250108 -333441 -342049 -509035
832426889295441152 -249857 -333337 -341993 -509030
832426889313652224 -249636 -333210 -341878 -509025
832426889331863168 -249555 -333231 -341861 -509086
832426889350074112 -249572 -333172 -341844 -509068
832426889368285056 -249646 -333192 -341887 -509074
832426889386496000 -249561 -333179 -341868 -509123
832426889404706944 -249525 -333167 -341790 -509098
832426889422918016 -249375 -333137 -341781 -509092
832426889441128960 -249243 -333042 -341736 -509108
832426889459339904 -249028 -332933 -341667 -509086
832426889477550890 -248708 -332769 -341516 -509121
832426889495760256 -248456 -332624 -341407 -509116
832426889513969664 -248214 -332522 -341336 -509051
832426889532179072 -247935 -332336 -341232 -508998
832426889550388480 -247697 -332224 -341165 -509021
832426889568597888 -247438 -332099 -341026 -509057
832426889586807296 -247318 -332067 -341007 -509020
832426889605016704 -247556 -332142 -341054 -509063
832426889623226112 -247832 -332308 -341174 -509068
832426889641435520 -248263 -332583 -341386 -509099
832426889659644928 -248896 -332812 -341598 -509083
832426889677854336 -249303 -333087 -341726 -509056
832426889696063744 -249897 -333330 -341916 -509083
832426889714273152 -250577 -333719 -342184 -509101
832426889732482560 -251176 -333993 -342392 -509064
832426889750691968 -251581 -334197 -342500 -509105
832426889768901376 -251910 -334413 -342755 -509077
832426889787110784 -252069 -334406 -342717 -509035
832426889805320192 -251992 -334455 -342724 -509096
832426889823529600 -251923 -334416 -342669 -509090
832426889841739008 -251706 -334284 -342622 -509063
832426889859948416 -251442 -334135 -342526 -509096
832426889878157824 -251068 -333940 -342416 -509042
832426889896367232 -250774 -333860 -342268 -509118
832426889914576640 -250577 -333669 -342113 -509055
832426889932786048 -250392 -333583 -342146 -509036
832426889950995456 -250145 -333455 -342003 -509065
832426889969204864 -249894 -333375 -341955 -509089
832426889987414272 -249671 -333287 -341927 -509060
832426890005623680 -249605 -333172 -341886 -509054
832426890023833088 -249520 -333142 -341770 -509072
832426890042042496 -249505 -333196 -341764 -509111
832426890060251904 -249410 -333153 -341774 -509074
832426890078461312 -249263 -333022 -341691 -509028
832426890096670720 -249203 -332991 -341667 -509032
832426890114880128 -249126 -332960 -341683 -508979
832426890133089536 -249038 -332879 -341653 -509069
832426890151298944 -248845 -332757 -341531 -509065
832426890169508394 -248542 -332609 -341443 -509079
832426890187719936 -248116 -332462 -341246 -509021
832426890205931520 -247797 -332271 -341190 -509009
832426890224143232 -247474 -332079 -341056 -509063
832426890242354816 -247343 -331982 -340989 -509038
832426890260566400 -247264 -332016 -340950 -509101
832426890278777984 -247501 -332133 -341074 -509092
832426890296989696 -247877 -332244 -341172 -509128
832426890315201280 -248419 -332558 -341419 -509046
832426890333412864 -249192 -332940 -341703 -509134
832426890351624448 -249780 -333233 -341889 -509076
832426890369836160 -250305 -333558 -342057 -509056
832426890388047744 -250840 -333858 -342262 -509072
832426890406259328 -251322 -334048 -342419 -509087
832426890424470912 -251700 -334230 -342632 -509097
832426890442682624 -251918 -334403 -342708 -509054
832426890460894208 -251867 -334383 -342649 -509068
832426890479105792 -251889 -334388 -342708 -509054
832426890497317376 -251825 -334314 -342660 -509086
832426890515529088 -251699 -334293 -342640 -509037
832426890533740672 -251414 -334142 -342504 -509082
832426890551952256 -251177 -334026 -342495 -509060
832426890570163840 -250868 -333799 -342329 -509084
832426890588375552 -250472 -333580 -342184 -509032
832426890606587136 -250208 -333447 -342141 -509130
832426890624798720 -249937 -333396 -341977 -509048
832426890643010304 -249787 -333280 -341920 -509068
832426890661222016 -249552 -333213 -341850 -509059
832426890679433600 -249479 -333143 -341811 -509079
832426890697645184 -249468 -333140 -341818 -509053
832426890715856768 -249570 -333177 -341870 -509064
832426890734068480 -249686 -333255 -341904 -509124
832426890752280064 -249646 -333170 -341905 -509128
832426890770491648 -249461 -333104 -341844 -509153
832426890788703232 -249225 -333035 -341742 -509082
832426890806914944 -248941 -332856 -341579 -509158
832426890825126528 -248674 -332724 -341500 -509150
832426890843338206 -248341 -332586 -341414 -509109
832426890861549824 -247917 -332358 -341224 -509110
832426890879761408 -247637 -332196 -341140 -509134
832426890897973120 -247390 -332026 -341049 -509045
832426890916184704 -247409 -331997 -341003 -509056
832426890934396288 -247668 -332115 -341144 -509050
832426890952607872 -247908 -332431 -341250 -509104
832426890970819584 -248351 -332592 -341430 -509126
832426890989031168 -248828 -332833 -341601 -509124
832426891007242752 -249429 -333120 -341791 -509099
832426891025454336 -249953 -333427 -342008 -509119
832426891043666048 -250580 -333702 -342215 -509155
832426891061877632 -251034 -333914 -342408 -509093
832426891080089216 -251450 -334140 -342522 -509100
832426891098300800 -251717 -334265 -342640 -509098
832426891116512512 -251969 -334410 -342657 -509053
832426891134724096 -252211 -334539 -342759 -509018
832426891152935680 -252128 -334525 -342819 -509049
832426891171147264 -252004 -334433 -342801 -509087
832426891189358976 -251668 -334282 -342638 -509103
832426891207570560 -251336 -334111 -342541 -509107
832426891225782144 -250986 -333934 -342386 -509133
832426891243993728 -250654 -333788 -342293 -509089
832426891262205440 -250318 -333551 -342153 -509117
832426891280417024 -250055 -333460 -342043 -509131
832426891298628608 -249948 -333362 -341961 -509068
832426891316840192 -249881 -333364 -341946 -509065
832426891335051904 -249821 -333357 -341948 -509023
832426891353263488 -249640 -333286 -341850 -509030
832426891371475072 -249581 -333186 -341831 -509085
832426891389686656 -249552 -333186 -341826 -509072
832426891407898368 -249513 -333187 -341839 -509050
832426891426109952 -249413 -333119 -341850 -509086
832426891444321536 -249209 -333058 -341776 -509131
832426891462533120 -248952 -332915 -341674 -509116
832426891480744832 -248724 -332769 -341531 -509066
832426891498956416 -248563 -332641 -341533 -509087
832426891517168008 -248313 -332541 -341416 -509008
832426891535379584 -248066 -332407 -341297 -509045
832426891553591168 -247733 -332246 -341167 -509058
832426891571802880 -247444 -332105 -341037 -509080
832426891590014464 -247299 -332030 -341011 -509038
832426891608226048 -247535 -332173 -341120 -509032
832426891626437632 -247911 -332337 -341287 -509064
832426891644649344 -248350 -332559 -341413 -509070
832426891662860928 -248933 -332868 -341677 -509069
832426891681072512 -249568 -333184 -341854 -509092
832426891699284096 -250321 -333563 -342147 -509105
832426891717495808 -250932 -333817 -342313 -509074
832426891735707392 -251419 -334075 -342489 -509075
832426891753918976 -251741 -334306 -342623 -509062
832426891772130560 -251864 -334411 -342694 -509051
832426891790342272 -251988 -334462 -342752 -509089
832426891808553856 -252092 -334446 -342755 -509144
832426891826765440 -251978 -334469 -342694 -509130
832426891844977024 -251710 -334277 -342592 -509076
832426891863188736 -251465 -334073 -342509 -509137
832426891881400320 -251129 -334004 -342373 -509085
832426891899611904 -250918 -333929 -342357 -509114
832426891917823488 -250767 -333799 -342260 -509094
832426891936035200 -250495 -333697 -342187 -509120
832426891954246784 -250229 -333571 -342131 -509107
832426891972458368 -249929 -333425 -341944 -509092
832426891990669952 -249819 -333304 -341906 -509140
832426892008881664 -249691 -333258 -341871 -509057
832426892027093248 -249567 -333210 -341795 -509016
832426892045304832 -249465 -333120 -341785 -509062
832426892063516416 -249473 -333070 -341825 -509086
832426892081728128 -249498 -333071 -341795 -509005
832426892099939712 -249439 -333122 -341811 -509045
832426892118151296 -249341 -333035 -341789 -509050
832426892136362880 -249071 -332951 -341665 -509101
832426892154574592 -248793 -332830 -341571 -509087
832426892172786176 -248485 -332619 -341470 -509092
832426892190997820 -248151 -332547 -341391 -509128
832426892209208960 -247811 -332317 -341221 -509150
832426892227420160 -247423 -332193 -341088 -509124
832426892245631360 -247275 -332090 -340994 -509054
832426892263842560 -247453 -332104 -341018 -509069
832426892282053760 -247690 -332226 -341140 -509116
832426892300264960 -248179 -332469 -341305 -509108
832426892318476160 -248850 -332802 -341522 -509102
832426892336687360 -249389 -333105 -341700 -509101
832426892354898560 -249885 -333360 -341938 -509101
832426892373109632 -250443 -333711 -342172 -509121
832426892391320832 -251001 -333938 -342382 -509117
832426892409532032 -251447 -334210 -342542 -509066
832426892427743232 -251718 -334339 -342622 -509080
832426892445954432 -251868 -334484 -342715 -509052
832426892464165632 -252146 -334550 -342783 -509117
832426892482376832 -252225 -334561 -342811 -509104
832426892500588032 -252264 -334526 -342842 -509069
832426892518799232 -252129 -334472 -342776 -509104
832426892537010432 -251733 -334400 -342682 -509135
832426892555221632 -251339 -334112 -342581 -509120
832426892573432832 -250985 -333978 -342383 -509060
832426892591644032 -250703 -333807 -342260 -509019
832426892609855232 -250404 -333690 -342195 -509033
832426892628066432 -250117 -333567 -342115 -509088
832426892646277632 -250023 -333428 -342102 -509026
832426892664488832 -249895 -333376 -342060 -509087
832426892682700032 -249885 -333446 -342042 -509074
832426892700911104 -249871 -333376 -342049 -509073
832426892719122304 -249888 -333402 -342068 -509097
832426892737333504 -249763 -333370 -342023 -509033
832426892755544704 -249681 -333320 -342000 -509070
832426892773755904 -249480 -333216 -341886 -509045
832426892791967104 -249304 -333151 -341823 -509066
832426892810178304 -249024 -332988 -341716 -509101
832426892828389504 -248735 -332834 -341622 -509075
832426892846600756 -248376 -332684 -341478 -509053
832426892864811648 -248201 -332566 -341387 -509040
832426892883022592 -247917 -332420 -341296 -509059
832426892901233536 -247735 -332316 -341221 -509042
832426892919444480 -247707 -332316 -341243 -509012
832426892937655552 -247873 -332344 -341259 -509004
832426892955866496 -248121 -332552 -341374 -509048
832426892974077440 -248569 -332752 -341589 -509048
832426892992288384 -249158 -333001 -341781 -509052
832426893010499328 -249702 -333357 -341949 -509047
832426893028710272 -250295 -333635 -342188 -509030
832426893046921216 -250875 -333891 -342335 -509048
832426893065132288 -251423 -334164 -342533 -509028
832426893083343232 -251903 -334364 -342715 -509050
832426893101554176 -252246 -334620 -342843 -509060
832426893119765120 -252350 -334683 -342919 -509062
832426893137976064 -252419 -334737 -342947 -509109
832426893156187008 -252331 -334598 -342943 -509094
832426893174397952 -252146 -334572 -342866 -509058
832426893192609024 -251879 -334449 -342761 -509042
832426893210819968 -251459 -334263 -342638 -509013
832426893229030912 -251136 -334065 -342535 -509073
832426893247241856 -250860 -333945 -342383 -509081
832426893265452800 -250673 -333808 -342342 -509056
832426893283663744 -250376 -333657 -342210 -509009
832426893301874688 -250352 -333622 -342157 -509064
832426893320085760 -250171 -333549 -342117 -509057
832426893338296704 -249965 -333546 -342099 -509065
832426893356507648 -249857 -333464 -342004 -509096
832426893374718592 -249874 -333434 -342040 -509088
832426893392929536 -249777 -333355 -341972 -509048
832426893411140480 -249680 -333348 -341924 -509018
832426893429351552 -249638 -333279 -341930 -509093
832426893447562496 -249542 -333162 -341894 -509083
832426893465773440 -249304 -333053 -341791 -509032
832426893483984448 -249175 -333047 -341742 -509064
832426893502195328 -248973 -332868 -341657 -509057
832426893520406272 -248605 -332679 -341476 -509014
832426893538617088 -248242 -332521 -341382 -509036
832426893556828032 -247867 -332365 -341264 -509015
832426893575038848 -247564 -332245 -341184 -509046
832426893593249792 -247627 -332257 -341250 -509009
832426893611460736 -247863 -332359 -341338 -509096
832426893629671552 -248281 -332530 -341479 -509048
832426893647882496 -248794 -332774 -341659 -509091
832426893666093312 -249498 -333116 -341833 -509082
832426893684304256 -250071 -333473 -342073 -509015
832426893702515200 -250717 -333789 -342373 -509102
832426893720726016 -251238 -334083 -342529 -509047
832426893738936960 -251706 -334321 -342666 -509019
832426893757147904 -251973 -334481 -342795 -509064
832426893775358720 -252120 -334520 -342810 -509042
832426893793569664 -252280 -334621 -342909 -509049
832426893811780480 -252274 -334556 -342917 -509149
832426893829991424 -252137 -334542 -342824 -509043
832426893848202368 -252046 -334523 -342768 -509080
832426893866413184 -251815 -334450 -342763 -509081
832426893884624128 -251565 -334280 -342671 -509097
832426893902834944 -251289 -334112 -342534 -509046
832426893921045888 -250934 -334013 -342434 -509108
832426893939256832 -250620 -333775 -342329 -509056
832426893957467648 -250315 -333688 -342204 -509115
832426893975678592 -250145 -333537 -342149 -509115
832426893993889408 -249942 -333464 -342041 -509081
832426894012100352 -249849 -333391 -342017 -509090
832426894030311296 -249855 -333400 -341993 -509082
832426894048522112 -249872 -333404 -342044 -509062
832426894066733056 -249938 -333395 -342049 -509102
832426894084943872 -249918 -333375 -341980 -509084
832426894103154816 -249716 -333282 -341973 -509126
832426894121365760 -249461 -333236 -341874 -509065
832426894139576576 -249263 -333093 -341855 -509081
832426894157787520 -248949 -332926 -341698 -509047
832426894175998410 -248674 -332775 -341585 -509037
832426894194208512 -248297 -332677 -341497 -509063
832426894212418560 -247975 -332459 -341343 -509076
832426894230628736 -247670 -332363 -341221 -509081
832426894248838784 -247584 -332299 -341188 -509089
832426894267048832 -247779 -332423 -341273 -509057
832426894285259008 -248177 -332559 -341380 -509092
832426894303469056 -248639 -332734 -341560 -509040
832426894321679104 -249127 -333058 -341823 -509089
832426894339889280 -249659 -333258 -341979 -509049
832426894358099328 -250146 -333577 -342132 -509043
832426894376309376 -250796 -333897 -342389 -509123
832426894394519552 -251220 -334048 -342510 -509138
832426894412729600 -251696 -334316 -342709 -509063
832426894430939648 -252080 -334503 -342846 -509116
832426894449149824 -252264 -334607 -342903 -509099
832426894467359872 -252362 -334637 -342891 -509072
832426894485569920 -252431 -334736 -342936 -509050
832426894503780096 -252262 -334664 -342892 -509109
832426894521990144 -252024 -334496 -342747 -509098
832426894540200192 -251688 -334337 -342712 -509119
832426894558410368 -251347 -334120 -342568 -509098
832426894576620416 -250980 -334022 -342492 -509100
832426894594830464 -250706 -333879 -342337 -509090
832426894613040640 -250469 -333685 -342262 -509126
832426894631250688 -250267 -333569 -342133 -509135
832426894649460736 -250140 -333621 -342101 -509141
832426894667670912 -250067 -333540 -342085 -509166
832426894685880960 -250008 -333550 -342100 -509087
832426894704091008 -249958 -333514 -342090 -509136
832426894722301184 -249844 -333396 -342046 -509057
832426894740511232 -249777 -333368 -341990 -509063
832426894758721280 -249647 -333320 -341943 -509082
832426894776931456 -249517 -333241 -341889 -509089
832426894795141504 -249258 -333125 -341791 -509093
832426894813351552 -249001 -332932 -341701 -509082
832426894831561728 -248777 -332859 -341613 -509029
832426894849771764 -248564 -332747 -341517 -509040
832426894867981056 -248359 -332629 -341447 -509087
832426894886190336 -248007 -332489 -341365 -509073
832426894904399616 -247784 -332354 -341253 -509097
832426894922608896 -247709 -332319 -341211 -509034
832426894940818176 -247874 -332369 -341290 -509020
832426894959027328 -248234 -332603 -341450 -509128
832426894977236608 -248662 -332885 -341623 -509114
832426894995445888 -249179 -333094 -341756 -509081
832426895013655168 -249769 -333418 -341999 -509123
832426895031864448 -250526 -333805 -342299 -509000
832426895050073728 -251128 -334047 -342555 -509122
832426895068283008 -251694 -334342 -342674 -509080
832426895086492288 -252123 -334548 -342848 -509088
832426895104701568 -252270 -334623 -342934 -509036
832426895122910720 -252416 -334697 -342955 -509115
832426895141120000 -252365 -334687 -342906 -509037
832426895159329280 -252272 -334659 -342957 -509097
832426895177538560 -252025 -334537 -342853 -509120
832426895195747840 -251723 -334404 -342759 -509083
832426895213957120 -251467 -334257 -342655 -509153
832426895232166400 -251182 -334133 -342574 -509086
832426895250375680 -250972 -333960 -342438 -509100
832426895268584960 -250804 -333853 -342373 -509056
832426895286794112 -250471 -333757 -342335 -509080
832426895305003392 -250256 -333575 -342177 -509047
832426895323212672 -250167 -333468 -342155 -509076
832426895341421952 -250077 -333459 -342131 -509051
832426895359631232 -249942 -333407 -342038 -509119
832426895377840512 -249798 -333393 -342052 -509040
832426895396049792 -249748 -333323 -341965 -509038
832426895414259072 -249734 -333291 -341974 -509099
832426895432468224 -249662 -333306 -341927 -509080
832426895450677504 -249597 -333251 -341932 -509066
832426895468886784 -249417 -333207 -341904 -509100
832426895487096064 -249118 -333084 -341736 -509091
832426895505305344 -248806 -332863 -341657 -509069
832426895523514588 -248492 -332640 -341538 -509043
832426895541726080 -248125 -332546 -341424 -509120
832426895559937536 -247805 -332412 -341306 -509069
832426895578149120 -247594 -332203 -341178 -509074
832426895596360576 -247713 -332347 -341289 -509141
832426895614572032 -247980 -332347 -341333 -509073
832426895632783488 -248438 -332645 -341506 -509117
832426895650995072 -248970 -332940 -341638 -509088
832426895669206528 -249624 -333293 -341918 -509057
832426895687417984 -250131 -333557 -342124 -509024
832426895705629568 -250756 -333877 -342376 -509052
832426895723841024 -251333 -334159 -342572 -509132
832426895742052480 -251726 -334412 -342735 -509059
832426895760263936 -252021 -334450 -342829 -509081
832426895778475520 -252131 -334549 -342800 -509084
832426895796686976 -252267 -334575 -342918 -509142
832426895814898432 -252383 -334701 -342967 -509111
832426895833110016 -252326 -334671 -342979 -509096
832426895851321472 -252102 -334628 -342859 -509025
832426895869532928 -251812 -334403 -342726 -509111
832426895887744384 -251442 -334291 -342661 -509103
832426895905955968 -251103 -334079 -342485 -509123
832426895924167424 -250915 -333938 -342441 -509141
832426895942378880 -250539 -333785 -342290 -509107
832426895960590464 -250237 -333668 -342193 -509070
832426895978801920 -250028 -333541 -342169 -509100
832426895997013376 -249891 -333414 -342083 -509072
832426896015224832 -249920 -333435 -342085 -509105
832426896033436416 -249975 -333491 -342129 -509133
832426896051647872 -250033 -333443 -342129 -509070
832426896069859328 -249976 -333453 -342095 -509099
832426896088070912 -249823 -333421 -342079 -509111
832426896106282368 -249743 -333389 -342028 -509125
832426896124493824 -249522 -333217 -341892 -509158
832426896142705408 -249211 -333083 -341773 -509063
832426896160916864 -248880 -332900 -341657 -509066
832426896179128320 -248544 -332731 -341541 -509082
832426896197339824 -248247 -332548 -341409 -509065
832426896215550592 -248061 -332480 -341350 -509074
832426896233761408 -247858 -332347 -341304 -509094
832426896251972096 -247860 -332331 -341304 -509055
832426896270182912 -248037 -332465 -341374 -509136
832426896288393728 -248258 -332613 -341445 -509077
832426896306604416 -248716 -332792 -341590 -509050
832426896324815232 -249262 -333162 -341790 -509089
832426896343025920 -249850 -333395 -341993 -509065
832426896361236736 -250373 -333678 -342160 -509018
832426896379447552 -250887 -333911 -342394 -509071
832426896397658240 -251470 -334230 -342592 -509102
832426896415869056 -251914 -334482 -342774 -509117
832426896434079872 -252250 -334626 -342895 -509121
832426896452290560 -252447 -334744 -342987 -509098
832426896470501376 -252449 -334755 -343006 -509076
832426896488712064 -252314 -334707 -342961 -509118
832426896506922880 -252187 -334588 -342820 -509083
832426896525133696 -251933 -334542 -342805 -509081
832426896543344384 -251582 -334315 -342706 -509066
832426896561555200 -251160 -334122 -342555 -509041
832426896579766016 -250929 -333948 -342422 -509100
832426896597976704 -250687 -333884 -342379 -509120
832426896616187520 -250529 -333746 -342312 -509125
832426896634398336 -250362 -333674 -342254 -509041
832426896652609024 -250230 -333648 -342165 -509075
832426896670819840 -250053 -333508 -342103 -509046
832426896689030528 -250045 -333468 -342137 -509111
832426896707241344 -249934 -333449 -342015 -509103
832426896725452160 -249885 -333455 -342136 -509102
832426896743662848 -249845 -333412 -341988 -509056
832426896761873664 -249628 -333330 -341970 -509100
832426896780084480 -249528 -333252 -341915 -509088
832426896798295168 -249327 -333145 -341911 -509108
832426896816505984 -249127 -333114 -341799 -509087
832426896834716672 -248936 -332955 -341768 -509173
832426896852927502 -248648 -332867 -341630 -509130
832426896871137408 -248316 -332677 -341504 -509097
832426896889347328 -247953 -332500 -341334 -509128
832426896907557120 -247772 -332366 -341275 -509086
832426896925767040 -247841 -332389 -341322 -509169
832426896943976960 -248086 -332485 -341411 -509155
832426896962186752 -248367 -332615 -341429 -509120
832426896980396672 -248853 -332886 -341671 -509141
832426896998606464 -249503 -333206 -341939 -509128
832426897016816384 -250213 -333553 -342148 -509130
832426897035026304 -250818 -333875 -342430 -509097
832426897053236096 -251390 -334184 -342648 -509131
832426897071446016 -251694 -334355 -342698 -509063
832426897089655936 -252072 -334577 -342833 -509133
832426897107865728 -252239 -334653 -342922 -509065
832426897126075648 -252365 -334729 -342935 -509074
832426897144285440 -252317 -334701 -342968 -509091
832426897162495360 -252205 -334615 -342906 -509084
832426897180705280 -252068 -334534 -342864 -509046
832426897198915072 -251823 -334367 -342749 -509053
832426897217124992 -251604 -334331 -342716 -509080
832426897235334912 -251394 -334197 -342669 -509127
832426897253544704 -251027 -334032 -342459 -509134
832426897271754624 -250699 -333849 -342350 -509096
832426897289964416 -250512 -333702 -342288 -509128
832426897308174336 -250190 -333563 -342188 -509056
832426897326384256 -250108 -333554 -342147 -509090
832426897344594048 -249860 -333448 -342081 -509046
832426897362803968 -249867 -333460 -342051 -509109
832426897381013888 -249854 -333411 -342017 -509126
832426897399223680 -249877 -333429 -342074 -509069
832426897417433600 -249920 -333414 -342065 -509094
832426897435643520 -249874 -333431 -341997 -509033
832426897453853312 -249642 -333328 -341932 -509116
832426897472063232 -249375 -333171 -341940 -509121
832426897490273046 -249072 -332960 -341759 -509117
832426897508483712 -248870 -332863 -341679 -509128
832426897526694400 -248441 -332715 -341563 -509069
832426897544905088 -248029 -332442 -341376 -509088
832426897563115776 -247754 -332320 -341258 -509140
832426897581326464 -247662 -332290 -341201 -509096
832426897599537152 -247953 -332461 -341355 -509122
832426897617747840 -248305 -332541 -341443 -509059
832426897635958528 -248717 -332862 -341623 -509080
832426897654169216 -249257 -333080 -341816 -509118
832426897672379904 -249778 -333354 -341978 -509151
832426897690590592 -250327 -333639 -342179 -509125
832426897708801280 -250865 -333904 -342333 -509113
832426897727011968 -251384 -334195 -342571 -509140
832426897745222784 -251789 -334414 -342752 -509135
832426897763433472 -252030 -334559 -342853 -509105
832426897781644160 -252246 -334630 -342920 -509072
832426897799854848 -252428 -334705 -342980 -509038
832426897818065536 -252534 -334820 -343068 -509082
832426897836276224 -252343 -334696 -343018 -509083
832426897854486912 -252125 -334488 -342861 -509096
832426897872697600 -251758 -334330 -342746 -509092
832426897890908288 -251398 -334186 -342597 -509062
832426897909118976 -251163 -334089 -342511 -509125
832426897927329664 -250821 -333941 -342436 -509161
832426897945540352 -250492 -333745 -342299 -509109
832426897963751040 -250264 -333681 -342177 -509088
832426897981961728 -250157 -333597 -342143 -509093
832426898000172416 -250142 -333547 -342149 -509135
832426898018383104 -250186 -333527 -342155 -509123
832426898036593792 -250122 -333541 -342215 -509173
832426898054804480 -250037 -333513 -342154 -509108
832426898073015168 -249915 -333413 -342063 -509126
832426898091225856 -249847 -333367 -342025 -509090
832426898109436544 -249653 -333302 -342015 -509090
832426898127647232 -249329 -333229 -341919 -509072
832426898145857920 -249074 -333066 -341768 -509070
832426898164068608 -248887 -332927 -341734 -509096
832426898182279378 -248660 -332829 -341632 -509139
832426898200490368 -248408 -332701 -341511 -509107
832426898218701312 -248168 -332587 -341436 -509100
832426898236912256 -247905 -332405 -341318 -509086
832426898255123072 -247828 -332440 -341312 -509089
832426898273334016 -248023 -332457 -341440 -509101
832426898291544960 -248319 -332628 -341458 -509091
832426898309755904 -248712 -332867 -341598 -509087
832426898327966720 -249325 -333118 -341839 -509084
832426898346177664 -249883 -333428 -342059 -509119
832426898364388608 -250469 -333704 -342294 -509104
832426898382599552 -251122 -334038 -342517 -509153
832426898400810496 -251612 -334319 -342696 -509132
832426898419021312 -252118 -334615 -342927 -509163
832426898437232256 -252337 -334712 -342954 -509118
832426898455443200 -252423 -334721 -343025 -509084
832426898473654144 -252430 -334736 -342942 -509081
832426898491864960 -252376 -334656 -342930 -509120
832426898510075904 -252209 -334635 -342906 -509100
832426898528286848 -251824 -334465 -342789 -509075
832426898546497792 -251532 -334272 -342710 -509103
832426898564708736 -251276 -334147 -342575 -509096
832426898582919552 -250964 -334030 -342440 -509064
832426898601130496 -250842 -333920 -342393 -509111
832426898619341440 -250569 -333793 -342335 -509121
832426898637552384 -250365 -333714 -342234 -509114
832426898655763200 -250136 -333602 -342183 -509136
832426898673974144 -249983 -333460 -342135 -509113
832426898692185088 -250002 -333489 -342059 -509138
832426898710396032 -249931 -333493 -342030 -509125
832426898728606976 -249858 -333475 -342075 -509119
832426898746817792 -249781 -333390 -341974 -509096
832426898765028736 -249725 -333358 -341969 -509153
832426898783239680 -249665 -333268 -341962 -509104
832426898801450624 -249516 -333185 -341885 -509097
832426898819661440 -249221 -333054 -341786 -509090
832426898837872384 -248939 -332930 -341719 -509117
832426898856083250 -248577 -332784 -341568 -509110
832426898874293248 -248177 -332544 -341438 -509098
832426898892503296 -247909 -332399 -341310 -509046
832426898910713472 -247724 -332341 -341201 -509077
832426898928923520 -247819 -332353 -341274 -509088
832426898947133568 -248051 -332513 -341308 -509091
832426898965343744 -248429 -332691 -341529 -509099
832426898983553792 -249031 -333016 -341814 -509111
832426899001763840 -249724 -333308 -342013 -509083
832426899019974016 -250263 -333604 -342218 -509083
832426899038184064 -250840 -333928 -342413 -509102
832426899056394112 -251353 -334164 -342573 -509109
832426899074604288 -251758 -334408 -342708 -509123
832426899092814336 -252060 -334571 -342853 -509142
832426899111024384 -252247 -334655 -342917 -509094
832426899129234560 -252370 -334746 -342963 -509106
832426899147444608 -252383 -334678 -342955 -509067
832426899165654656 -252368 -334727 -342954 -509099
832426899183864832 -252169 -334615 -342899 -509070
832426899202074880 -252018 -334524 -342790 -509069
832426899220284928 -251627 -334342 -342696 -509119
832426899238495104 -251272 -334131 -342558 -509028
832426899256705152 -250866 -333922 -342416 -509090
832426899274915200 -250586 -333819 -342393 -509153
832426899293125376 -250298 -333701 -342247 -509064
832426899311335424 -250074 -333593 -342140 -509099
832426899329545472 -250006 -333477 -342109 -509099
832426899347755648 -249920 -333462 -342066 -509068
832426899365965696 -249999 -333450 -342111 -509091
832426899384175744 -250047 -333523 -342104 -509069
832426899402385920 -250118 -333519 -342114 -509166
832426899420595968 -249946 -333504 -342040 -509088
832426899438806016 -249748 -333394 -342007 -509160
832426899457016192 -249483 -333251 -341928 -509124
832426899475226240 -249317 -333128 -341842 -509110
832426899493436288 -249066 -332986 -341753 -509054
832426899511646464 -248713 -332820 -341680 -509121
832426899529856592 -248374 -332665 -341501 -509110
832426899548067328 -248156 -332510 -341372 -509131
832426899566278016 -247857 -332400 -341263 -509091
832426899584488576 -247962 -332401 -341322 -509128
832426899602699264 -248068 -332485 -341317 -509022
832426899620909952 -248292 -332679 -341492 -509143
832426899639120512 -248729 -332894 -341654 -509104
832426899657331200 -249245 -333139 -341854 -509043
832426899675541760 -249811 -333447 -342102 -509099
832426899693752448 -250383 -333748 -342221 -509074
832426899711963136 -250913 -334004 -342437 -509090
832426899730173696 -251515 -334244 -342631 -509094
832426899748384384 -251866 -334489 -342802 -509105
832426899766595072 -252263 -334610 -342944 -509145
832426899784805632 -252437 -334712 -342995 -509108
832426899803016320 -252505 -334731 -342994 -509049
832426899821227008 -252393 -334730 -342959 -509102
832426899839437568 -252241 -334707 -342937 -509089
832426899857648256 -251997 -334519 -342850 -509123
832426899875858816 -251640 -334327 -342695 -509130
832426899894069504 -251360 -334207 -342618 -509175
832426899912280192 -250986 -334031 -342500 -509099
832426899930490752 -250710 -333907 -342308 -509080
832426899948701440 -250568 -333777 -342274 -509153
832426899966912128 -250380 -333681 -342185 -509101
832426899985122688 -250263 -333584 -342162 -509122
832426900003333376 -250128 -333559 -342157 -509067
832426900021544064 -249973 -333510 -342090 -509057
832426900039754624 -249949 -333497 -342079 -509106
832426900057965312 -249908 -333452 -342048 -509120
832426900076176000 -249855 -333430 -341999 -509062
832426900094386560 -249698 -333345 -341933 -509056
832426900112597248 -249580 -333278 -341956 -509152
832426900130807808 -249451 -333155 -341886 -509092
832426900149018496 -249212 -333139 -341860 -509106
832426900167229184 -248950 -332968 -341715 -509036
832426900185439694 -248745 -332883 -341686 -509080
832426900203650560 -248437 -332649 -341468 -509103
832426900221861376 -248102 -332539 -341329 -509111
832426900240072064 -247837 -332418 -341279 -509071
832426900258282880 -247818 -332407 -341238 -509133
832426900276493696 -247992 -332446 -341330 -509116
832426900294704384 -248248 -332561 -341406 -509043
832426900312915200 -248791 -332880 -341652 -509039
832426900331125888 -249431 -333159 -341886 -509089
832426900349336704 -250057 -333530 -342163 -509097
832426900367547520 -250733 -333928 -342433 -509133
832426900385758208 -251390 -334243 -342666 -509122
832426900403969024 -251804 -334477 -342847 -509089
832426900422179840 -252107 -334585 -342862 -509054
832426900440390528 -252312 -334646 -342939 -509043
832426900458601344 -252386 -334737 -342972 -509050
832426900476812032 -252439 -334747 -343038 -509080
832426900495022848 -252293 -334702 -342915 -509084
832426900513233664 -252103 -334553 -342820 -509084
832426900531444352 -251869 -334463 -342795 -509099
832426900549655168 -251664 -334340 -342692 -509079
832426900567865984 -251350 -334193 -342553 -509072
832426900586076672 -251086 -334039 -342459 -509100
832426900604287488 -250762 -333810 -342394 -509126
832426900622498304 -250431 -333742 -342254 -509060
832426900640708992 -250244 -333615 -342203 -509063
832426900658919808 -250145 -333622 -342159 -509083
832426900677130496 -250029 -333526 -342150 -509086
832426900695341312 -249948 -333455 -342084 -509130
832426900713552128 -249997 -333464 -342082 -509114
832426900731762816 -249934 -333443 -342020 -509075
832426900749973632 -249925 -333447 -342068 -509038
832426900768184448 -249859 -333445 -342050 -509058
832426900786395136 -249664 -333350 -341999 -509053
832426900804605952 -249430 -333161 -341854 -509107
832426900822816640 -249126 -333055 -341733 -509098
832426900841027372 -248802 -332839 -341651 -509094
832426900859238784 -248525 -332696 -341534 -509101
832426900877450240 -248200 -332555 -341395 -509080
832426900895661696 -247887 -332417 -341308 -509096
832426900913873152 -247809 -332338 -341266 -509121
832426900932084608 -247933 -332398 -341358 -509124
832426900950295936 -248290 -332543 -341432 -509076
832426900968507392 -248753 -332785 -341631 -509106
832426900986718848 -249256 -333148 -341916 -509133
832426901004930304 -249801 -333431 -342046 -509168
832426901023141760 -250365 -333706 -342289 -509107
832426901041353216 -250807 -333986 -342443 -509104
832426901059564672 -251401 -334310 -342642 -509127
832426901077776128 -251789 -334451 -342769 -509118
832426901095987584 -252052 -334557 -342926 -509096
832426901114198912 -252347 -334710 -342981 -509128
832426901132410368 -252555 -334791 -343051 -509148
832426901150621824 -252576 -334767 -343065 -509123
832426901168833280 -252507 -334754 -343020 -509123
832426901187044736 -252212 -334608 -342921 -509110
832426901205256192 -251869 -334459 -342768 -509102
832426901223467648 -251519 -334285 -342648 -509092
832426901241679104 -251236 -334137 -342577 -509151
832426901259890560 -250821 -333977 -342414 -509086
832426901278102016 -250497 -333818 -342345 -509108
832426901296313344 -250322 -333663 -342247 -509168
832426901314524800 -250215 -333575 -342196 -509152
832426901332736256 -250173 -333628 -342147 -509104
832426901350947712 -250209 -333649 -342187 -509138
832426901369159168 -250122 -333644 -342233 -509084
832426901387370624 -250044 -333615 -342108 -509110
832426901405582080 -249936 -333519 -342069 -509091
832426901423793536 -249902 -333492 -342041 -509115
832426901442004992 -249707 -333329 -342014 -509104
832426901460216320 -249474 -333277 -341938 -509137
832426901478427848 -249101 -333022 -341793 -509080
832426901496637952 -248855 -332972 -341714 -509056
832426901514848000 -248686 -332801 -341615 -509066
832426901533058176 -248421 -332728 -341481 -509099
832426901551268224 -248200 -332579 -341419 -509125
832426901569478272 -247883 -332377 -341379 -509097
832426901587688448 -247901 -332360 -341360 -509068
832426901605898496 -248080 -332503 -341393 -509103
832426901624108544 -248372 -332650 -341502 -509099
832426901642318720 -248765 -332852 -341673 -509102
832426901660528768 -249305 -333100 -341776 -509086
832426901678738816 -249879 -333408 -342040 -509064
832426901696948992 -250495 -333796 -342310 -509122
832426901715159040 -251187 -334128 -342575 -509071
832426901733369088 -251669 -334320 -342627 -509018
832426901751579264 -252057 -334544 -342860 -509035
832426901769789312 -252349 -334697 -342955 -509058
832426901787999360 -252491 -334822 -343007 -509075
832426901806209536 -252482 -334708 -342957 -509065
832426901824419584 -252432 -334685 -342948 -509042
832426901842629632 -252129 -334575 -342849 -508989
832426901860839808 -251811 -334472 -342764 -509057
832426901879049856 -251524 -334276 -342653 -509128
832426901897259904 -251266 -334204 -342543 -509056
832426901915470080 -251005 -334033 -342491 -509107
832426901933680128 -250770 -333870 -342341 -509080
832426901951890176 -250620 -333748 -342282 -509094
832426901970100352 -250340 -333654 -342232 -509020
832426901988310400 -250161 -333561 -342155 -509055
832426902006520448 -250113 -333562 -342154 -509053
832426902024730624 -250029 -333517 -342133 -509144
832426902042940672 -249926 -333404 -342106 -509093
832426902061150720 -249783 -333319 -342025 -508966
832426902079360896 -249751 -333361 -342013 -509003
832426902097570944 -249636 -333378 -341972 -509043
832426902115780992 -249668 -333276 -341940 -509099
832426902133991112 -249530 -333202 -341962 -509126
832426902152202112 -249257 -333132 -341899 -509100
832426902170413056 -248958 -332889 -341724 -509038
832426902188624000 -248676 -332746 -341628 -509104
832426902206834816 -248326 -332625 -341484 -509070
832426902225045760 -247956 -332456 -341326 -509092
832426902243256704 -247778 -332340 -341307 -509111
832426902261467648 -247762 -332326 -341275 -509113
832426902279678464 -248004 -332376 -341346 -509113
832426902297889408 -248488 -332642 -341526 -509098
832426902316100352 -249081 -332951 -341765 -509052
832426902334311296 -249662 -333260 -341963 -509007
832426902352522240 -250296 -333665 -342267 -509058
832426902370733056 -250873 -333947 -342436 -509070
832426902388944000 -251407 -334191 -342577 -509099
832426902407154944 -251902 -334447 -342784 -509120
832426902425365888 -252221 -334606 -342905 -509074
832426902443576704 -252389 -334710 -342966 -509022
832426902461787648 -252403 -334705 -342956 -509122
832426902479998592 -252382 -334610 -342899 -509053
832426902498209536 -252355 -334656 -343011 -509115
832426902516420352 -252239 -334655 -342981 -509065
832426902534631296 -252006 -334472 -342873 -509081
832426902552842240 -251649 -334316 -342724 -509049
832426902571053184 -251283 -334067 -342539 -509015
832426902589264128 -250930 -333950 -342426 -509030
832426902607474944 -250623 -333784 -342236 -509057
832426902625685888 -250381 -333738 -342268 -509034
832426902643896832 -250163 -333586 -342116 -509051
832426902662107776 -249989 -333528 -342035 -509046
832426902680318592 -249922 -333482 -342056 -508991
832426902698529536 -250028 -333513 -342072 -509066
832426902716740480 -250029 -333515 -342106 -509073
832426902734951424 -250100 -333489 -342149 -509079
832426902753162368 -250023 -333518 -342129 -509088
832426902771373184 -249813 -333405 -342061 -509079
832426902789584128 -249596 -333258 -341946 -509054
832426902807794972 -249314 -333093 -341808 -509008
832426902826004480 -249064 -333024 -341753 -509035
832426902844214016 -248658 -332851 -341640 -509021
832426902862423552 -248366 -332658 -341520 -509016
832426902880632960 -248151 -332517 -341433 -509056
832426902898842496 -247869 -332409 -341305 -509063
832426902917052032 -247874 -332468 -341319 -509074
832426902935261568 -248132 -332616 -341431 -509072
832426902953471104 -248412 -332728 -341565 -509120
832426902971680640 -248806 -332882 -341642 -509104
832426902989890048 -249271 -333065 -341871 -509083
832426903008099584 -249808 -333433 -342037 -509119
832426903026309120 -250402 -333713 -342277 -509127
832426903044518656 -250900 -333999 -342476 -509066
832426903062728192 -251427 -334204 -342650 -509081
832426903080937728 -251876 -334436 -342785 -509115
832426903099147136 -252237 -334610 -342952 -509107
832426903117356672 -252495 -334767 -343049 -509120
832426903135566208 -252632 -334843 -343052 -509054
832426903153775744 -252547 -334805 -343056 -509062
832426903171985280 -252341 -334712 -342932 -509022
832426903190194688 -252130 -334573 -342874 -509071
832426903208404224 -251856 -334440 -342771 -509116
832426903226613760 -251394 -334265 -342622 -509079
832426903244823296 -251024 -333994 -342515 -509047
832426903263032832 -250714 -333897 -342427 -509084
832426903281242368 -250531 -333797 -342310 -509101
832426903299451776 -250436 -333734 -342296 -509121
832426903317661312 -250338 -333691 -342253 -509085
832426903335870848 -250298 -333675 -342199 -509069
832426903354080384 -250100 -333599 -342106 -509041
832426903372289920 -250047 -333519 -342144 -509086
832426903390499328 -250100 -333537 -342123 -509079
832426903408708864 -250033 -333504 -342067 -509013
832426903426918400 -249861 -333413 -342064 -509031
832426903445127936 -249713 -333321 -341977 -509096
832426903463337472 -249513 -333208 -341908 -509067
832426903481546962 -249282 -333131 -341892 -509093
832426903499756032 -249101 -333042 -341768 -509106
832426903517965056 -248828 -332967 -341701 -509071
832426903536173952 -248572 -332730 -341586 -509047
832426903554382976 -248094 -332551 -341423 -509071
832426903572592000 -247889 -332466 -341368 -509056
832426903590801024 -247894 -332459 -341328 -509100
832426903609009920 -248088 -332564 -341342 -509132
832426903627218944 -248427 -332631 -341513 -509020
832426903645427968 -248811 -332884 -341642 -509098
832426903663636992 -249360 -333209 -341873 -509075
832426903681845888 -250084 -333553 -342117 -509091
832426903700054912 -250740 -333893 -342388 -509084
832426903718263936 -251333 -334238 -342648 -509089
832426903736472832 -251832 -334415 -342808 -509105
832426903754681856 -252125 -334558 -342927 -509085
832426903772890880 -252300 -334703 -342920 -509075
832426903791099904 -252480 -334801 -343039 -509113
832426903809308800 -252528 -334810 -343122 -509111
832426903827517824 -252378 -334742 -342991 -509115
832426903845726848 -252130 -334551 -342829 -509055
832426903863935744 -251875 -334476 -342832 -509056
832426903882144768 -251640 -334316 -342723 -509068
832426903900353792 -251364 -334150 -342587 -509042
832426903918562816 -251169 -334080 -342495 -509086
832426903936771712 -250818 -333852 -342368 -509090
832426903954980736 -250507 -333717 -342347 -509107
832426903973189760 -250381 -333656 -342211 -509125
832426903991398784 -250242 -333609 -342219 -509064
832426904009607680 -250139 -333576 -342158 -509096
832426904027816704 -250032 -333542 -342121 -509053
832426904046025728 -249931 -333459 -342044 -509039
832426904064234624 -249942 -333435 -342054 -509127
832426904082443648 -249924 -333460 -342106 -509130
832426904100652672 -249929 -333444 -342060 -509108
832426904118861696 -249813 -333459 -342074 -509099
832426904137070554 -249526 -333210 -341914 -509084
832426904155281536 -249174 -333101 -341839 -509075
832426904173492480 -248903 -332990 -341739 -509131
832426904191703424 -248574 -332769 -341543 -509051
832426904209914368 -248236 -332639 -341475 -509029
832426904228125440 -247848 -332415 -341290 -509058
832426904246336384 -247773 -332348 -341278 -509093
832426904264547328 -247926 -332474 -341373 -509079
832426904282758272 -248251 -332634 -341487 -509087
832426904300969216 -248716 -332817 -341629 -509171
832426904319180160 -249255 -333087 -341813 -509071
832426904337391104 -249870 -333405 -342121 -509084
832426904355602176 -250336 -333609 -342243 -509035
832426904373813120 -250965 -334014 -342451 -509057
832426904392024064 -251457 -334271 -342649 -509054
832426904410235008 -251854 -334476 -342784 -509076
832426904428445952 -252119 -334637 -342886 -509143
832426904446656896 -252312 -334722 -342948 -509076
832426904464867840 -252430 -334697 -342940 -509098
832426904483078912 -252456 -334783 -342985 -509074
832426904501289856 -252482 -334791 -343008 -509076
832426904519500800 -252316 -334755 -342994 -509123
832426904537711744 -251945 -334468 -342832 -509096
832426904555922688 -251531 -334332 -342675 -509040
832426904574133632 -251236 -334219 -342585 -509133
832426904592344576 -250914 -333945 -342431 -509051
832426904610555648 -250648 -333861 -342405 -509059
832426904628766592 -250366 -333682 -342223 -509036
832426904646977536 -250122 -333566 -342118 -509019
832426904665188480 -250093 -333600 -342127 -509082
832426904683399424 -250045 -333543 -342101 -509074
832426904701610368 -250165 -333645 -342186 -509104
832426904719821440 -250130 -333574 -342172 -509092
832426904738032384 -250032 -333534 -342117 -509111
832426904756243328 -249957 -333507 -342030 -509056
832426904774454246 -249776 -333384 -342031 -509074
832426904792664320 -249543 -333229 -341918 -509069
832426904810874368 -249220 -333120 -341859 -509101
832426904829084544 -248969 -333034 -341770 -509111
832426904847294592 -248640 -332822 -341582 -509077
832426904865504640 -248425 -332749 -341478 -509063
832426904883714816 -248238 -332539 -341364 -509091
832426904901924864 -248046 -332483 -341310 -509089
832426904920134912 -247977 -332484 -341361 -509085
832426904938345088 -248149 -332586 -341363 -509091
832426904956555136 -248403 -332743 -341449 -509132
832426904974765184 -248851 -332935 -341685 -509077
832426904992975360 -249376 -333190 -341861 -509076
832426905011185408 -249856 -333466 -342029 -509069
832426905029395456 -250446 -333739 -342251 -509051
832426905047605632 -251020 -334014 -342503 -509050
832426905065815680 -251641 -334323 -342778 -509091
832426905084025728 -252130 -334539 -342897 -509037
832426905102235904 -252541 -334747 -343076 -509088
832426905120445952 -252590 -334842 -343110 -509101
832426905138656000 -252571 -334859 -343107 -509133
832426905156866176 -252532 -334813 -343031 -509151
832426905175076224 -252329 -334715 -342951 -509068
832426905193286272 -252031 -334518 -342852 -509100
832426905211496448 -251714 -334303 -342758 -509087
832426905229706496 -251289 -334116 -342606 -509064
832426905247916544 -251009 -334027 -342523 -509077
832426905266126720 -250798 -333953 -342421 -509031
832426905284336768 -250658 -333850 -342325 -509070
832426905302546816 -250521 -333828 -342299 -509110
832426905320756992 -250313 -333672 -342210 -509094
832426905338967040 -250190 -333633 -342170 -509134
832426905357177088 -250074 -333567 -342149 -509130
832426905375387264 -250006 -333533 -342059 -509106
832426905393597312 -249986 -333521 -342096 -509090
832426905411807420 -249825 -333473 -342103 -509024
832426905430016640 -249738 -333380 -342032 -509040
832426905448225920 -249589 -333344 -342001 -509077
832426905466435200 -249534 -333251 -341901 -509081
832426905484644608 -249444 -333182 -341905 -509144
832426905502853888 -249079 -333013 -341806 -509053
832426905521063168 -248740 -332923 -341680 -509091
832426905539272448 -248386 -332706 -341546 -509123
832426905557481856 -248055 -332528 -341413 -509135
832426905575691136 -247856 -332446 -341346 -509059
832426905593900416 -247824 -332456 -341297 -509043
832426905612109696 -248044 -332510 -341407 -509107
832426905630318976 -248420 -332643 -341497 -509103
832426905648528384 -248974 -332910 -341702 -509067
832426905666737664 -249646 -333328 -341994 -509094
832426905684946944 -250395 -333692 -342266 -509116
832426905703156224 -250874 -333941 -342407 -509070
832426905721365504 -251440 -334180 -342618 -509100
832426905739574912 -251796 -334416 -342742 -509049
832426905757784192 -252138 -334572 -342911 -509029
832426905775993472 -252392 -334735 -343017 -509045
832426905794202752 -252408 -334740 -343003 -509034
832426905812412160 -252440 -334747 -343019 -509075
832426905830621440 -252332 -334703 -343017 -509101
832426905848830720 -252221 -334608 -342953 -509055
832426905867040000 -251987 -334531 -342827 -509028
832426905885249280 -251828 -334445 -342823 -509098
832426905903458688 -251428 -334215 -342666 -509094
832426905921667968 -251045 -334071 -342508 -509100
832426905939877248 -250744 -333878 -342401 -509092
832426905958086528 -250506 -333821 -342311 -509043
832426905976295936 -250328 -333700 -342284 -509072
832426905994505216 -250045 -333551 -342160 -509068
832426906012714496 -250000 -333570 -342138 -509111
832426906030923776 -249998 -333520 -342116 -509069
832426906049133056 -250022 -333546 -342143 -509086
832426906067342464 -249990 -333512 -342061 -509053
832426906085551744 -249998 -333554 -342094 -509055
832426906103761024 -249877 -333392 -342009 -509084
832426906121970424 -249655 -333328 -341986 -509121
832426906140179840 -249456 -333276 -341963 -509111
832426906158389248 -249113 -333030 -341794 -509058
832426906176598656 -248873 -332944 -341714 -509092
832426906194807936 -248484 -332731 -341535 -509062
832426906213017344 -248166 -332485 -341435 -509064
832426906231226752 -247856 -332360 -341275 -509035
832426906249436160 -247909 -332434 -341279 -509052
832426906267645568 -248123 -332517 -341389 -509079
832426906285854976 -248433 -332724 -341498 -509116
832426906304064256 -248831 -332854 -341688 -509082
832426906322273664 -249297 -333159 -341874 -509023
832426906340483072 -249870 -333422 -342011 -509084
832426906358692480 -250407 -333774 -342269 -509065
832426906376901888 -251024 -334106 -342510 -509069
832426906395111296 -251502 -334245 -342663 -509116
832426906413320576 -251905 -334471 -342771 -509020
832426906431529984 -252217 -334636 -342905 -509082
832426906449739392 -252437 -334735 -343017 -509107
832426906467948800 -252602 -334881 -343127 -509097
832426906486158208 -252572 -334795 -343049 -509085
832426906504367616 -252388 -334701 -342960 -509067
832426906522576896 -252120 -334610 -342900 -509107
832426906540786304 -251729 -334359 -342729 -509031
832426906558995712 -251491 -334194 -342603 -509086
832426906577205120 -251187 -334047 -342535 -509113
832426906595414528 -250877 -333940 -342432 -509039
832426906613623936 -250555 -333801 -342325 -509086
832426906631833216 -250371 -333728 -342290 -509074
832426906650042624 -250272 -333630 -342204 -509063
832426906668252032 -250276 -333606 -342163 -509060
832426906686461440 -250265 -333604 -342208 -509128
832426906704670848 -250056 -333484 -342135 -509063
832426906722880256 -249986 -333487 -342121 -509038
832426906741089536 -249982 -333451 -342101 -509091
832426906759298944 -249883 -333389 -342003 -509105
832426906777508352 -249690 -333285 -341994 -509080
832426906795717760 -249444 -333191 -341950 -509026
832426906813927168 -249164 -333026 -341842 -509019
832426906832136490 -248969 -332972 -341741 -509042
832426906850344960 -248784 -332888 -341682 -509069
832426906868553472 -248473 -332750 -341574 -509056
832426906886762112 -248130 -332575 -341450 -509043
832426906904970624 -247922 -332425 -341384 -509082
832426906923179264 -247838 -332383 -341282 -509076
832426906941387776 -248041 -332489 -341331 -509047
832426906959596288 -248392 -332659 -341529 -509066
832426906977804928 -248832 -332842 -341665 -509021
832426906996013440 -249462 -333246 -341964 -509093
832426907014222080 -250099 -333569 -342129 -509132
832426907032430592 -250692 -333889 -342363 -509074
832426907050639232 -251289 -334140 -342556 -509059
832426907068847744 -251921 -334439 -342782 -509057
832426907087056256 -252248 -334653 -342935 -509093
832426907105264896 -252491 -334795 -343079 -509109
832426907123473408 -252539 -334823 -343051 -509080
832426907141682048 -252478 -334837 -343053 -509103
832426907159890560 -252477 -334750 -343052 -509073
832426907178099072 -252201 -334638 -342880 -509022
832426907196307712 -251935 -334498 -342757 -509086
832426907214516224 -251650 -334416 -342680 -509099
832426907232724864 -251367 -334264 -342652 -509136
832426907250933376 -251120 -334113 -342496 -509088
832426907269141888 -250955 -333992 -342421 -509066
832426907287350528 -250662 -333883 -342355 -509081
832426907305559040 -250419 -333696 -342231 -509043
832426907323767680 -250194 -333630 -342176 -509056
832426907341976192 -250093 -333612 -342191 -509139
832426907360184832 -250067 -333575 -342137 -509116
832426907378393344 -250009 -333486 -342097 -509085
832426907396601856 -250045 -333519 -342155 -509076
832426907414810496 -250010 -333448 -342075 -509068
832426907433019008 -249854 -333400 -342023 -509018
832426907451227648 -249809 -333389 -342039 -509046
832426907469436160 -249533 -333256 -341969 -509071
832426907487644672 -249291 -333095 -341821 -509066
832426907505853386 -248986 -332960 -341743 -509023
832426907524061952 -248622 -332748 -341563 -509050
832426907542270464 -248272 -332649 -341494 -509046
832426907560479104 -247860 -332431 -341313 -509034
832426907578687616 -247790 -332429 -341366 -509043
832426907596896256 -247883 -332456 -341368 -509031
832426907615104768 -248190 -332605 -341492 -509088
832426907633313280 -248633 -332834 -341727 -509076
832426907651521920 -249256 -333103 -341903 -509075
832426907669730432 -249830 -333407 -342049 -509083
832426907687939072 -250375 -333698 -342221 -509038
832426907706147584 -250933 -333941 -342452 -509101
832426907724356224 -251409 -334241 -342631 -509040
832426907742564736 -251824 -334482 -342843 -509065
832426907760773248 -252188 -334573 -342918 -509068
832426907778981888 -252389 -334736 -343000 -509005
832426907797190400 -252511 -334757 -342953 -508988
832426907815399040 -252545 -334788 -343057 -509076
832426907833607552 -252488 -334770 -343050 -509079
832426907851816064 -252335 -334716 -342959 -509051
832426907870024704 -251964 -334519 -342844 -508995
832426907888233216 -251629 -334422 -342734 -509097
832426907906441856 -251278 -334170 -342618 -509081
832426907924650368 -250956 -333997 -342533 -509081
832426907942858880 -250723 -333871 -342375 -509091
832426907961067520 -250363 -333747 -342272 -509012
832426907979276032 -250238 -333620 -342202 -509038
832426907997484672 -250140 -333602 -342194 -509064
832426908015693184 -250040 -333518 -342176 -509039
832426908033901824 -250076 -333570 -342130 -509035
832426908052110336 -250148 -333603 -342204 -509097
832426908070318848 -250074 -333525 -342143 -509017
832426908088527488 -249969 -333497 -342113 -509024
832426908106736000 -249821 -333389 -342010 -509024
832426908124944640 -249544 -333264 -341928 -509046
832426908143153156 -249284 -333174 -341847 -509031
832426908161363840 -248981 -332987 -341718 -509081
832426908179574528 -248695 -332815 -341595 -508998
832426908197785344 -248454 -332741 -341546 -509039
832426908215996032 -248142 -332539 -341429 -509004
832426908234206848 -247999 -332420 -341359 -509071
832426908252417536 -247993 -332509 -341403 -509029
832426908270628352 -248173 -332548 -341491 -509091
832426908288839040 -248324 -332675 -341526 -509028
832426908307049856 -248764 -332843 -341674 -508997
832426908325260544 -249351 -333157 -341912 -509073
832426908343471232 -249843 -333469 -342064 -509065
832426908361682048 -250380 -333770 -342291 -509016
832426908379892736 -251038 -334056 -342546 -509030
832426908398103552 -251542 -334348 -342641 -509045
832426908416314240 -252050 -334521 -342817 -509062
832426908434525056 -252349 -334726 -342981 -509018
832426908452735744 -252556 -334848 -343072 -509007
832426908470946560 -252516 -334788 -343079 -509070
832426908489157248 -252468 -334801 -343072 -509045
832426908507367936 -252299 -334722 -342935 -509054
832426908525578752 -252010 -334595 -342852 -509028
832426908543789440 -251677 -334434 -342783 -509026
832426908562000256 -251364 -334229 -342655 -509077
832426908580210944 -251108 -334084 -342505 -509087
832426908598421760 -250801 -333948 -342375 -509114
832426908616632448 -250580 -333779 -342267 -509077
832426908634843264 -250456 -333691 -342250 -509032
832426908653053952 -250252 -333632 -342185 -509008
832426908671264640 -250179 -333582 -342187 -509060
832426908689475456 -250144 -333611 -342238 -509071
832426908707686144 -250063 -333548 -342153 -509042
832426908725896960 -249975 -333452 -342089 -508992
832426908744107648 -249953 -333483 -342124 -509038
832426908762318464 -249839 -333439 -342059 -509055
832426908780529218 -249716 -333347 -342048 -509059
832426908798740736 -249516 -333193 -341911 -509023
832426908816952192 -249354 -333155 -341837 -509080
832426908835163776 -249130 -333007 -341726 -509059
832426908853375232 -248820 -332909 -341664 -509067
832426908871586688 -248471 -332719 -341487 -509040
832426908889798272 -248088 -332508 -341413 -509054
832426908908009728 -247844 -332438 -341361 -509090
832426908926221184 -247822 -332401 -341340 -509023
832426908944432768 -248041 -332546 -341440 -509074
832426908962644224 -248436 -332716 -341544 -509035
832426908980855680 -248969 -333014 -341721 -509032
832426908999067136 -249614 -333269 -341912 -509021
832426909017278720 -250210 -333612 -342185 -509062
832426909035490176 -250883 -333962 -342449 -509069
832426909053701632 -251427 -334246 -342689 -509058
832426909071913216 -251900 -334498 -342867 -509080
832426909090124672 -252170 -334653 -342953 -509036
832426909108336128 -252346 -334777 -343016 -509020
832426909126547712 -252427 -334792 -343018 -509065
832426909144759168 -252303 -334728 -342961 -508998
832426909162970624 -252272 -334714 -342955 -509039
832426909181182208 -252157 -334659 -342874 -509037
832426909199393664 -251887 -334545 -342784 -509051
832426909217605120 -251684 -334398 -342769 -509070
832426909235816704 -251459 -334228 -342657 -509083
832426909254028160 -251133 -334078 -342470 -509077
832426909272239616 -250804 -333909 -342379 -508998
832426909290451072 -250474 -333716 -342263 -508998
832426909308662656 -250294 -333684 -342249 -509020
832426909326874112 -250123 -333655 -342198 -509056
832426909345085568 -250044 -333576 -342157 -509107
832426909363297152 -249975 -333504 -342119 -509051
832426909381508608 -250049 -333540 -342178 -509084
832426909399720064 -250031 -333464 -342159 -509060
832426909417931648 -250036 -333451 -342116 -509057
832426909436143104 -249953 -333515 -342103 -509033
832426909454354560 -249760 -333415 -341959 -509080
832426909472566068 -249519 -333273 -341886 -509087
832426909490776064 -249175 -333095 -341778 -509079
832426909508986112 -248847 -332921 -341647 -509060
832426909527196160 -248536 -332758 -341567 -509065
832426909545406208 -248225 -332504 -341450 -509108
832426909563616256 -247895 -332404 -341312 -509107
832426909581826304 -247860 -332403 -341331 -509104
832426909600036352 -248094 -332540 -341420 -509060
832426909618246400 -248383 -332668 -341516 -509089
832426909636456448 -248759 -332868 -341652 -509075
832426909654666496 -249207 -333054 -341847 -509045
832426909672876544 -249868 -333416 -342094 -509090
832426909691086592 -250501 -333689 -342286 -509124
832426909709296640 -251013 -334002 -342472 -509029
832426909727506688 -251565 -334271 -342701 -509085
832426909745716736 -251965 -334503 -342853 -509046
832426909763926784 -252221 -334585 -342937 -509032
832426909782136832 -252517 -334719 -343042 -509046
832426909800346880 -252591 -334769 -343038 -509063
832426909818556928 -252591 -334801 -343038 -509073
832426909836766976 -252462 -334737 -343028 -509082
832426909854977024 -252180 -334621 -342921 -509082
832426909873187072 -251839 -334412 -342796 -509055
832426909891397120 -251456 -334206 -342643 -509068
832426909909607168 -251133 -334090 -342521 -509049
832426909927817216 -250823 -333937 -342367 -509024
832426909946027264 -250563 -333823 -342310 -509066
832426909964237440 -250340 -333712 -342183 -509008
832426909982447488 -250288 -333723 -342253 -509073
832426910000657536 -250177 -333560 -342185 -509022
832426910018867584 -250249 -333585 -342217 -509035
832426910037077632 -250089 -333550 -342172 -509031
832426910055287680 -250062 -333562 -342078 -508998
832426910073497728 -249994 -333563 -342087 -509072
832426910091707776 -249913 -333482 -342073 -509064
832426910109917824 -249761 -333376 -342016 -509040
832426910128127872 -249415 -333209 -341911 -509108
832426910146337920 -249158 -333114 -341848 -509038
832426910164547986 -248975 -333005 -341756 -509022
832426910182756480 -248772 -332828 -341669 -509047
832426910200964992 -248545 -332767 -341540 -509040
832426910219173632 -248213 -332605 -341461 -509064
832426910237382144 -247967 -332500 -341343 -509034
832426910255590784 -247912 -332493 -341346 -509071
832426910273799296 -248114 -332506 -341410 -509045
832426910292007808 -248444 -332678 -341565 -509037
832426910310216448 -248900 -332922 -341705 -509019
832426910328424960 -249367 -333264 -341897 -509039
832426910346633600 -249951 -333531 -342136 -509071
832426910364842112 -250659 -333790 -342398 -509116
832426910383050752 -251236 -334130 -342635 -509036
832426910401259264 -251787 -334417 -342781 -509065
832426910419467776 -252176 -334644 -342914 -509038
832426910437676416 -252409 -334742 -342987 -509024
832426910455884928 -252520 -334777 -342998 -509041
832426910474093568 -252570 -334827 -343064 -509070
832426910492302080 -252450 -334770 -343001 -509040
832426910510510592 -252330 -334649 -342951 -509031
832426910528719232 -251965 -334493 -342829 -509043
832426910546927744 -251643 -334347 -342683 -509049
832426910565136384 -251433 -334280 -342604 -509082
832426910583344896 -251217 -334079 -342552 -509032
832426910601553408 -250963 -334015 -342519 -509048
832426910619762048 -250663 -333858 -342387 -508994
832426910637970560 -250484 -333708 -342304 -509052
832426910656179200 -250253 -333601 -342195 -509014
832426910674387712 -250148 -333504 -342188 -509014
832426910692596224 -250027 -333459 -342098 -508996
832426910710804864 -249966 -333467 -342115 -509018
832426910729013376 -249889 -333389 -342101 -508985
832426910747222016 -249890 -333501 -342051 -509016
832426910765430528 -249880 -333401 -342040 -509042
832426910783639168 -249770 -333382 -342035 -509034
832426910801847680 -249569 -333238 -341933 -509001
832426910820056192 -249328 -333155 -341911 -508978
832426910838264832 -248991 -333016 -341717 -509013
832426910856473432 -248693 -332784 -341595 -509048
832426910874683520 -248368 -332651 -341529 -509052
832426910892893568 -247993 -332449 -341392 -509052
832426910911103616 -247695 -332310 -341259 -509026
832426910929313664 -247827 -332392 -341295 -509084
832426910947523712 -248160 -332511 -341430 -509051
832426910965733760 -248556 -332784 -341553 -509075
832426910983943808 -249200 -333070 -341783 -509076
832426911002153856 -249856 -333413 -342026 -509053
832426911020363904 -250380 -333582 -342212 -509008
832426911038573952 -250911 -333970 -342448 -508986
832426911056784000 -251401 -334233 -342592 -509028
832426911074994048 -251830 -334447 -342794 -509036
832426911093204096 -252209 -334601 -342919 -509004
832426911111414144 -252266 -334677 -343015 -508964
832426911129624192 -252355 -334671 -343017 -509023
832426911147834240 -252466 -334774 -343040 -509101
832426911166044288 -252395 -334721 -342973 -509020
832426911184254336 -252276 -334687 -342925 -509026
832426911202464384 -252094 -334570 -342865 -509039
832426911220674432 -251682 -334335 -342673 -509024
832426911238884480 -251373 -334246 -342568 -509026
832426911257094528 -251050 -334036 -342534 -509083
832426911275304576 -250765 -333842 -342386 -509021
832426911293514624 -250469 -333785 -342294 -509037
832426911311724672 -250277 -333612 -342169 -509022
832426911329934720 -250079 -333493 -342014 -508969
832426911348144768 -250135 -333524 -342150 -509032
832426911366354816 -250185 -333520 -342170 -508998
832426911384564864 -250169 -333566 -342194 -509040
832426911402774912 -250151 -333567 -342228 -509058
832426911420984960 -249983 -333458 -342094 -509011
832426911439195008 -249835 -333398 -342045 -509068
832426911457405056 -249583 -333276 -341909 -509077
832426911475615104 -249341 -333137 -341885 -509030
832426911493825152 -249128 -333001 -341809 -509057
832426911512035200 -248789 -332811 -341633 -508987
832426911530245262 -248502 -332662 -341548 -509026
832426911548455808 -248191 -332559 -341445 -509025
832426911566666368 -247985 -332480 -341330 -509043
832426911584876928 -248081 -332500 -341343 -509057
832426911603087488 -248164 -332537 -341427 -509018
832426911621297920 -248447 -332731 -341563 -509062
832426911639508480 -248864 -332916 -341675 -509075
832426911657719040 -249363 -333185 -341879 -509096
832426911675929600 -249832 -333439 -342076 -508983
832426911694140160 -250514 -333743 -342279 -509083
832426911712350720 -250998 -334016 -342501 -509074
832426911730561152 -251595 -334336 -342701 -509116
832426911748771712 -252010 -334499 -342860 -509134
832426911766982272 -252449 -334748 -342967 -509121
832426911785192832 -252633 -334830 -343102 -509036
832426911803403392 -252690 -334907 -343110 -509122
832426911821613952 -252640 -334811 -343092 -509101
832426911839824384 -252445 -334722 -343049 -509133
832426911858034944 -252186 -334626 -342951 -509157
832426911876245504 -251863 -334472 -342833 -509156
832426911894456064 -251461 -334282 -342701 -509126
832426911912666624 -251126 -334109 -342471 -509045
832426911930877184 -250874 -333970 -342444 -509088
832426911949087616 -250679 -333928 -342499 -509104
832426911967298176 -250539 -333796 -342379 -509120
832426911985508736 -250539 -333725 -342315 -509105
832426912003719296 -250352 -333649 -342280 -509084
832426912021929856 -250264 -333635 -342218 -509088
832426912040140416 -250133 -333600 -342169 -509073
832426912058350976 -250083 -333580 -342199 -509122
832426912076561408 -250037 -333581 -342176 -509053
832426912094771968 -249842 -333470 -342081 -509119
832426912112982528 -249733 -333413 -341996 -509099
832426912131193088 -249548 -333347 -341998 -509081
832426912149403606 -249308 -333145 -341862 -509056
832426912167614336 -249223 -333117 -341877 -509033
832426912185825024 -248941 -332943 -341796 -509049
832426912204035840 -248600 -332796 -341688 -509083
832426912222246528 -248194 -332610 -341461 -509171
832426912240457344 -247944 -332470 -341385 -509142
832426912258668032 -247949 -332554 -341367 -509114
832426912276878848 -248194 -332624 -341461 -509114
832426912295089536 -248438 -332758 -341565 -509072
832426912313300352 -248974 -332956 -341736 -509122
832426912331511040 -249570 -333252 -341935 -509057
832426912349721728 -250208 -333638 -342215 -509088
832426912367932544 -250926 -333979 -342469 -509092
832426912386143232 -251439 -334292 -342700 -509071
832426912404354048 -251837 -334464 -342841 -509058
832426912422564736 -252265 -334652 -343065 -509099
832426912440775552 -252412 -334712 -342972 -509037
832426912458986240 -252573 -334829 -343050 -509068
832426912477197056 -252546 -334868 -343076 -509074
832426912495407744 -252421 -334752 -343056 -509053
832426912513618432 -252241 -334641 -342961 -509035
832426912531829248 -252003 -334568 -342908 -509009
832426912550039936 -251788 -334413 -342837 -509064
832426912568250752 -251581 -334302 -342723 -509096
832426912586461440 -251207 -334071 -342583 -509111
832426912604672256 -250856 -333955 -342442 -509085
832426912622882944 -250576 -333848 -342347 -509101
832426912641093760 -250416 -333780 -342317 -509099
832426912659304448 -250299 -333618 -342178 -509040
832426912677515136 -250235 -333661 -342202 -509123
832426912695725952 -250039 -333576 -342174 -509067
832426912713936640 -250013 -333559 -342144 -509148
832426912732147456 -249996 -333540 -342111 -509050
832426912750358144 -250039 -333541 -342168 -509109
832426912768568960 -249999 -333504 -342144 -509034
832426912786779668 -249850 -333428 -342094 -509108
832426912804990208 -249516 -333311 -342043 -509096
832426912823200768 -249267 -333107 -341903 -509107
832426912841411328 -248976 -332980 -341730 -509054
832426912859621888 -248637 -332795 -341623 -509026
832426912877832448 -248305 -332699 -341454 -509071
832426912896043008 -247992 -332469 -341336 -509008
832426912914253696 -247843 -332415 -341325 -508984
832426912932464256 -247977 -332499 -341415 -509063
832426912950674816 -248373 -332736 -341544 -509039
832426912968885376 -248908 -332984 -341738 -509089
832426912987095936 -249407 -333225 -341907 -509042
832426913005306496 -249947 -333554 -342144 -509094
832426913023517056 -250430 -333741 -342304 -509032
832426913041727616 -250978 -334099 -342499 -509037
832426913059938176 -251576 -334299 -342711 -509064
832426913078148736 -251873 -334506 -342810 -508999
832426913096359424 -252227 -334663 -343005 -509118
832426913114569984 -252413 -334728 -343032 -509056
832426913132780544 -252558 -334828 -343073 -509056
832426913150991104 -252649 -334851 -343056 -509053
832426913169201664 -252619 -334831 -343074 -509105
832426913187412224 -252274 -334660 -342943 -509063
832426913205622784 -251938 -334500 -342870 -509086
832426913223833344 -251586 -334345 -342711 -509086
832426913242043904 -251232 -334165 -342622 -509074
832426913260254464 -250947 -334023 -342544 -509057
832426913278465152 -250717 -333873 -342454 -509107
832426913296675712 -250464 -333787 -342345 -509092
832426913314886272 -250338 -333680 -342267 -509125
832426913333096832 -250316 -333691 -342267 -509101
832426913351307392 -250290 -333655 -342279 -509047
832426913369517952 -250233 -333657 -342215 -509056
832426913387728512 -250180 -333626 -342225 -509052
832426913405939072 -250112 -333646 -342229 -509068
832426913424149632 -250024 -333565 -342135 -509099
832426913442360192 -249816 -333435 -342047 -509096
832426913460570880 -249582 -333367 -342015 -509056
832426913478781422 -249341 -333168 -341910 -509046
832426913496990848 -249170 -333074 -341822 -509073
832426913515200256 -248873 -332884 -341762 -509081
832426913533409664 -248571 -332777 -341632 -509041
832426913551619072 -248324 -332657 -341557 -509099
832426913569828352 -248066 -332477 -341415 -509081
832426913588037760 -247993 -332522 -341362 -509058
832426913606247168 -248173 -332585 -341451 -509106
832426913624456576 -248478 -332743 -341591 -509097
832426913642665984 -248918 -333030 -341745 -509122
832426913660875392 -249442 -333320 -341975 -509101
832426913679084800 -250032 -333540 -342112 -509062
832426913697294080 -250597 -333845 -342335 -509072
832426913715503488 -251146 -334121 -342499 -509080
832426913733712896 -251748 -334383 -342718 -509059
832426913751922304 -252252 -334697 -342970 -509074
832426913770131712 -252484 -334820 -343030 -509072
832426913788341120 -252573 -334899 -343112 -509060
832426913806550528 -252584 -334872 -343103 -509014
832426913824759808 -252528 -334858 -343075 -509059
832426913842969216 -252341 -334755 -342983 -509001
832426913861178624 -252043 -334633 -342878 -509075
832426913879388032 -251702 -334379 -342767 -509087
832426913897597440 -251455 -334225 -342649 -509014
832426913915806848 -251191 -334065 -342505 -509018
832426913934016256 -250946 -333941 -342499 -509056
832426913952225536 -250762 -333853 -342391 -509070
832426913970434944 -250524 -333760 -342334 -508996
832426913988644352 -250329 -333651 -342169 -509030
832426914006853760 -250173 -333630 -342242 -509079
832426914025063168 -250107 -333606 -342160 -509077
832426914043272576 -250116 -333589 -342205 -509133
832426914061481984 -250044 -333515 -342147 -509137
832426914079691264 -249957 -333451 -342132 -509073
832426914097900672 -249925 -333417 -342090 -509028
832426914116110080 -249824 -333432 -342046 -509090
832426914134319488 -249651 -333346 -341981 -509026
832426914152528836 -249492 -333233 -341928 -509051
832426914170739712 -249136 -333064 -341839 -509086
832426914188950528 -248695 -332865 -341654 -509057
832426914207161344 -248379 -332708 -341528 -509052
832426914225372032 -248066 -332543 -341455 -509103
832426914243582848 -247908 -332449 -341357 -509037
832426914261793664 -247893 -332504 -341382 -509049
832426914280004480 -248187 -332517 -341446 -509097
832426914298215296 -248527 -332700 -341614 -509083
832426914316425984 -249071 -333017 -341766 -509022
832426914334636800 -249839 -333364 -341999 -509122
832426914352847616 -250432 -333815 -342256 -509085
832426914371058432 -250966 -334078 -342431 -509054
832426914389269248 -251449 -334318 -342664 -509054
832426914407480064 -251853 -334496 -342834 -509058
832426914425690752 -252244 -334658 -342989 -509116
832426914443901568 -252405 -334827 -343001 -509051
832426914462112384 -252485 -334801 -343065 -509065
832426914480323200 -252489 -334810 -343041 -509055
832426914498534016 -252488 -334775 -343045 -509083
832426914516744704 -252312 -334690 -342999 -509091
832426914534955520 -252119 -334649 -342938 -509130
832426914553166336 -251768 -334434 -342829 -509110
832426914571377152 -251467 -334266 -342670 -509036
832426914589587968 -251097 -334075 -342561 -509119
832426914607798656 -250744 -333851 -342405 -509063
832426914626009472 -250494 -333777 -342267 -509055
832426914644220288 -250400 -333712 -342247 -509063
832426914662431104 -250186 -333583 -342202 -508977
832426914680641920 -250201 -333631 -342243 -509052
832426914698852608 -250132 -333603 -342203 -509099
832426914717063424 -250213 -333604 -342239 -509075
832426914735274240 -250187 -333653 -342203 -509088
832426914753485056 -250102 -333611 -342130 -509098
832426914771695872 -249893 -333506 -342092 -509082
832426914789906560 -249706 -333498 -342099 -509122
832426914808117376 -249395 -333235 -341955 -509041
832426914826328120 -249135 -333109 -341829 -509038
832426914844538240 -248819 -332983 -341713 -509051
832426914862748416 -248516 -332777 -341628 -509032
832426914880958720 -248257 -332606 -341453 -509001
832426914899168896 -248025 -332463 -341385 -509047
832426914917379072 -247978 -332494 -341339 -509001
832426914935589248 -248239 -332591 -341481 -509057
832426914953799552 -248505 -332745 -341594 -509068
832426914972009728 -248889 -332962 -341767 -509126
832426914990219904 -249435 -333265 -341926 -509028
832426915008430208 -249995 -333483 -342075 -509087
832426915026640384 -250568 -333747 -342348 -509115
832426915044850560 -251032 -334106 -342524 -509090
832426915063060864 -251603 -334388 -342731 -509070
832426915081271040 -252037 -334547 -342861 -509075
832426915099481216 -252286 -334675 -342985 -509012
832426915117691392 -252624 -334856 -343137 -509064
832426915135901696 -252751 -334892 -343172 -509090
832426915154111872 -252679 -334941 -343192 -509077
832426915172322048 -252502 -334798 -343080 -509050
832426915190532352 -252267 -334667 -342948 -509051
832426915208742528 -251841 -334428 -342782 -509028
832426915226952704 -251507 -334278 -342648 -509045
832426915245163008 -251112 -334108 -342473 -509064
832426915263373184 -250874 -334008 -342397 -509089
832426915281583360 -250636 -333873 -342293 -509039
832426915299793536 -250492 -333782 -342303 -509069
832426915318003840 -250412 -333677 -342267 -509049
832426915336214016 -250262 -333646 -342273 -509082
832426915354424192 -250237 -333587 -342171 -509023
832426915372634496 -250149 -333586 -342198 -509059
832426915390844672 -250113 -333542 -342154 -509069
832426915409054848 -250023 -333513 -342148 -509087
832426915427265152 -249937 -333517 -342158 -509100
832426915445475328 -249705 -333353 -342006 -509059
832426915463685504 -249526 -333214 -341963 -509016
832426915481895680 -249360 -333178 -341954 -509090
832426915500106050 -249125 -333066 -341779 -508985
832426915518316672 -248954 -332961 -341760 -509084
832426915536527232 -248629 -332833 -341652 -509086
832426915554737664 -248167 -332611 -341488 -509033
832426915572948224 -247963 -332471 -341427 -509072
832426915591158784 -247949 -332462 -341377 -509031
832426915609369216 -248134 -332587 -341425 -509005
832426915627579776 -248555 -332765 -341587 -509053
832426915645790336 -249028 -332988 -341812 -509039
832426915664000768 -249595 -333291 -342025 -509035
832426915682211328 -250255 -333666 -342229 -509058
832426915700421760 -250903 -333953 -342498 -509123
832426915718632320 -251456 -334258 -342679 -509071
832426915736842880 -251945 -334470 -342819 -509105
832426915755053312 -252309 -334684 -342956 -509041
832426915773263872 -252423 -334783 -343080 -509035
832426915791474432 -252535 -334861 -343076 -509116
832426915809684864 -252571 -334843 -343105 -509158
832426915827895424 -252415 -334796 -343074 -509130
832426915846105984 -252211 -334681 -342984 -509139
832426915864316416 -251989 -334585 -342902 -509136
832426915882526976 -251726 -334417 -342774 -509149
832426915900737536 -251472 -334270 -342716 -509085
832426915918947968 -251330 -334199 -342595 -509079
832426915937158528 -251012 -334020 -342470 -509126
832426915955368960 -250761 -333885 -342398 -509145
832426915973579520 -250515 -333820 -342310 -509114
832426915991790080 -250276 -333720 -342259 -509162
832426916010000512 -250179 -333629 -342191 -509097
832426916028211072 -250063 -333622 -342159 -509090
832426916046421632 -250061 -333538 -342161 -509033
832426916064632064 -250049 -333523 -342202 -509071
832426916082842624 -250021 -333549 -342191 -509087
832426916101053184 -249981 -333560 -342166 -509116
832426916119263616 -249887 -333511 -342133 -509073
832426916137474176 -249607 -333320 -342039 -509135
832426916155684572 -249258 -333178 -341918 -509087
832426916173894528 -249042 -333007 -341824 -509120
832426916192104448 -248657 -332832 -341635 -509064
832426916210314240 -248327 -332640 -341500 -508986
832426916228524160 -247948 -332482 -341369 -509021
832426916246734080 -247803 -332392 -341292 -509020
832426916264943872 -248033 -332553 -341395 -509075
832426916283153792 -248391 -332700 -341493 -509048
832426916301363584 -248814 -332949 -341677 -509088
832426916319573504 -249338 -333210 -341896 -509113
832426916337783424 -249995 -333493 -342120 -509093
832426916355993216 -250499 -333754 -342290 -509113
832426916374203136 -251082 -334074 -342509 -509057
832426916392413056 -251595 -334300 -342711 -509077
832426916410622848 -251937 -334531 -342868 -509069
832426916428832768 -252225 -334683 -343001 -509121
832426916447042560 -252502 -334824 -343098 -509103
832426916465252480 -252539 -334841 -343112 -509046
832426916483462400 -252609 -334905 -343133 -509111
832426916501672192 -252603 -334849 -343052 -509101
832426916519882112 -252389 -334669 -342974 -509077
832426916538092032 -252051 -334583 -342856 -509119
832426916556301824 -251612 -334356 -342762 -509063
832426916574511744 -251295 -334213 -342694 -509026
832426916592721664 -251011 -334023 -342518 -509050
832426916610931456 -250695 -333868 -342435 -509060
832426916629141376 -250504 -333858 -342348 -509110
832426916647351168 -250326 -333737 -342267 -509091
832426916665561088 -250293 -333681 -342237 -509081
832426916683771008 -250337 -333715 -342249 -509110
832426916701980800 -250309 -333663 -342223 -509089
832426916720190720 -250230 -333694 -342243 -509124
832426916738400640 -250124 -333560 -342164 -509162
832426916756610432 -250066 -333577 -342155 -509116
832426916774820352 -249903 -333512 -342110 -509104
832426916793030118 -249734 -333406 -342056 -509115
832426916811240832 -249379 -333217 -341916 -509079
832426916829451520 -249088 -333075 -341777 -509109
832426916847662336 -248852 -332927 -341701 -509045
832426916865873024 -248744 -332876 -341656 -509132
832426916884083840 -248430 -332700 -341506 -509068
832426916902294528 -248194 -332610 -341460 -509030
832426916920505344 -248130 -332561 -341536 -509074
832426916938716032 -248238 -332609 -341465 -509070
832426916956926848 -248520 -332802 -341571 -509048
832426916975137536 -248973 -332985 -341781 -509072
832426916993348224 -249430 -333290 -341952 -509079
832426917011559040 -249949 -333514 -342125 -509100
832426917029769728 -250520 -333825 -342404 -509065
832426917047980544 -251199 -334120 -342630 -509072
832426917066191232 -251734 -334464 -342815 -509074
832426917084402048 -252260 -334678 -342991 -509132
832426917102612736 -252586 -334877 -343137 -509085
832426917120823552 -252706 -334910 -343134 -509139
832426917139034240 -252651 -334867 -343173 -509042
832426917157244928 -252622 -334879 -343093 -509076
832426917175455744 -252505 -334833 -343119 -509132
832426917193666432 -252174 -334695 -342987 -509145
832426917211877248 -251755 -334448 -342826 -509135
832426917230087936 -251494 -334281 -342720 -509153
832426917248298752 -251267 -334180 -342626 -509080
832426917266509440 -251012 -334064 -342598 -509092
832426917284720256 -250827 -333956 -342464 -509075
832426917302930944 -250686 -333885 -342452 -509084
832426917321141632 -250421 -333752 -342289 -508991
832426917339352448 -250272 -333667 -342282 -509076
832426917357563136 -250195 -333700 -342284 -509096
832426917375773952 -250129 -333609 -342196 -509056
832426917393984640 -250063 -333613 -342164 -509038
832426917412195456 -249959 -333605 -342165 -509012
832426917430406180 -249877 -333469 -342069 -509057
832426917448615424 -249832 -333432 -342068 -509114
832426917466824704 -249662 -333326 -342098 -509107
832426917485033984 -249477 -333309 -342062 -509087
832426917503243392 -249262 -333144 -341896 -509096
832426917521452672 -248863 -332978 -341744 -509105
832426917539661952 -248508 -332710 -341641 -509040
832426917557871232 -248167 -332631 -341527 -509116
832426917576080640 -247972 -332495 -341352 -509089
832426917594289920 -248035 -332504 -341447 -509011
832426917612499200 -248173 -332621 -341471 -509070
832426917630708480 -248589 -332819 -341611 -509056
832426917648917760 -249163 -333082 -341809 -509053
832426917667127168 -249839 -333496 -342038 -509042
832426917685336448 -250472 -333752 -342300 -509046
832426917703545728 -251006 -334063 -342535 -509105
832426917721755008 -251564 -334299 -342732 -509059
832426917739964288 -251959 -334549 -342899 -509059
832426917758173696 -252303 -334671 -342965 -509030
832426917776382976 -252498 -334803 -343064 -509072
832426917794592256 -252454 -334753 -343024 -509090
832426917812801536 -252473 -334757 -342996 -509085
832426917831010944 -252536 -334775 -343076 -509159
832426917849220224 -252363 -334677 -342953 -509045
832426917867429504 -252118 -334556 -342933 -509059
832426917885638784 -251958 -334535 -342859 -509081
832426917903848064 -251511 -334277 -342673 -509075
832426917922057472 -251191 -334147 -342632 -509162
832426917940266752 -250898 -334011 -342521 -509157
832426917958476032 -250666 -333833 -342485 -509094
832426917976685312 -250396 -333717 -342327 -509074
832426917994894720 -250178 -333587 -342179 -509018
832426918013104000 -250140 -333567 -342200 -509062
