TIMESTAMP PPG0 PPG1 PPG2 AMBIENT
832427107849951744 629018 544199 534650 364285
832427107868133504 628916 544233 534555 364247
832427107886315392 628838 544142 534563 364217
832427107904497152 628914 544137 534548 364244
832427107922679040 628969 544126 534565 364251
832427107940860800 628944 544254 534596 364228
832427107959042688 629033 544183 534592 364242
832427107977224448 629032 544146 534578 364267
832427107995406336 629057 544177 534611 364233
832427108013588096 629138 544171 534658 364231
832427108031769984 629125 544263 534653 364233
832427108049951744 629044 544243 534632 364234
832427108068133504 628941 544183 534632 364258
832427108086315392 628848 544114 534581 364213
832427108104497152 628963 544162 534588 364251
832427108122679040 629029 544160 534582 364284
832427108140860800 629063 544196 534649 364275
832427108159042688 628992 544204 534590 364254
832427108177224448 629021 544204 534620 364279
832427108195406336 628965 544210 534605 364247
832427108213588096 629006 544209 534638 364235
832427108231769984 629027 544168 534611 364277
832427108249951744 629028 544213 534638 364294
832427108268133504 628976 544164 534604 364263
832427108286315392 628885 544175 534586 364284
832427108304497152 628911 544181 534657 364322
832427108322679040 629014 544230 534609 364324
832427108340860800 629047 544198 534575 364274
832427108359042688 629027 544152 534590 364263
832427108377224448 628979 544182 534625 364296
832427108395406336 629046 544261 534622 364240
832427108413588096 629064 544240 534629 364191
832427108431769984 629072 544270 534712 364226
832427108449951744 629035 544245 534632 364218
832427108468133504 628949 544182 534583 364228
832427108486315392 628849 544144 534547 364245
832427108504497152 628906 544146 534545 364209
832427108522679040 628928 544109 534554 364194
832427108540860800 628934 544142 534636 364212
832427108559042688 629010 544193 534622 364282
832427108577224448 629044 544187 534638 364269
832427108595406336 629081 544271 534660 364258
832427108613588096 629073 544249 534690 364265
832427108631769984 629109 544236 534681 364290
832427108649951744 629006 544172 534642 364268
832427108668133504 628900 544153 534595 364251
832427108686315384 628930 544117 534620 364257
832427108704529664 628916 544094 534588 364239
832427108722743936 628945 544106 534589 364228
832427108740958208 629021 544146 534641 364223
832427108759172480 628960 544205 534632 364248
832427108777386752 629003 544201 534629 364195
832427108795601024 629131 544239 534670 364237
832427108813815296 629098 544291 534640 364280
832427108832029568 629027 544233 534596 364259
832427108850243840 628877 544169 534564 364211
832427108868458112 628775 544133 534552 364222
832427108886672384 628842 544163 534627 364292
832427108904886656 628920 544121 534589 364226
832427108923100928 629056 544168 534637 364312
832427108941315200 629125 544228 534637 364285
832427108959529472 629058 544215 534589 364234
832427108977743744 629039 544186 534638 364250
832427108995958016 629112 544282 534649 364315
832427109014172288 629112 544204 534647 364245
832427109032386560 629041 544225 534610 364208
832427109050600832 628955 544138 534638 364246
832427109068814976 628802 544092 534528 364213
832427109087029248 628823 544148 534555 364290
832427109105243520 628886 544101 534570 364288
832427109123457792 629057 544197 534620 364274
832427109141672064 629085 544246 534630 364219
832427109159886336 629137 544214 534611 364253
832427109178100608 629128 544245 534665 364234
832427109196314880 629134 544221 534612 364236
832427109214529152 629065 544229 534610 364227
832427109232743424 629029 544240 534651 364243
832427109250957696 628940 544112 534613 364225
832427109269171968 628823 544094 534548 364209
832427109287386240 628857 544080 534571 364219
832427109305600512 628930 544159 534585 364221
832427109323814784 629016 544214 534628 364233
832427109342029056 629015 544180 534624 364258
832427109360243328 629115 544216 534658 364290
832427109378457600 629174 544231 534633 364294
832427109396671872 629030 544227 534621 364269
832427109414886144 629044 544226 534649 364264
832427109433100416 629068 544204 534597 364291
832427109451314668 628936 544175 534627 364226
832427109469528576 628864 544174 534558 364265
832427109487742464 628934 544180 534610 364245
832427109505956480 629032 544196 534633 364259
832427109524170368 629079 544201 534684 364238
832427109542384384 629125 544206 534713 364197
832427109560598272 629109 544227 534690 364281
832427109578812288 629197 544259 534708 364294
832427109597026176 629148 544184 534648 364279
832427109615240064 629098 544229 534650 364259
832427109633454080 629022 544182 534574 364202
832427109651667968 628895 544181 534620 364268
832427109669881984 628858 544145 534558 364195
832427109688095872 628950 544191 534626 364221
832427109706309760 628946 544185 534559 364246
832427109724523776 629044 544231 534605 364290
832427109742737664 629047 544166 534590 364241
832427109760951680 629071 544191 534586 364220
832427109779165568 629114 544281 534651 364229
832427109797379584 629089 544297 534700 364243
832427109815593472 628995 544217 534624 364202
832427109833807360 628925 544166 534560 364165
832427109852021376 628850 544133 534527 364205
832427109870235264 628909 544138 534573 364201
832427109888449280 628959 544160 534570 364219
832427109906663168 628897 544192 534592 364243
832427109924877056 628923 544135 534569 364227
832427109943091072 629053 544232 534614 364280
832427109961304960 629107 544244 534637 364286
832427109979518976 629094 544201 534642 364284
832427109997732864 629145 544160 534590 364302
832427110015946880 629123 544236 534537 364247
832427110034160768 628931 544183 534554 364208
832427110052374656 629329 544351 534655 364212
832427110070588672 629952 544693 534964 364230
832427110088802560 630494 545025 535175 364290
832427110107016576 631003 545234 535348 364246
832427110125230464 631372 545428 535506 364272
832427110143444352 631787 545601 535638 364275
832427110161658368 632213 545801 535834 364286
832427110179872256 632541 546026 535972 364240
832427110198086272 632670 546082 536027 364219
832427110216300216 632412 546001 535961 364239
832427110234512640 632076 545799 535801 364224
832427110252725120 631569 545533 535611 364190
832427110270937600 631081 545304 535381 364162
832427110289150080 630520 544965 535161 364226
832427110307362560 629968 544628 534960 364208
832427110325575040 629401 544368 534798 364265
832427110343787520 628861 544111 534501 364246
832427110362000000 628466 543868 534435 364254
832427110380212480 628132 543710 534306 364263
832427110398424960 627911 543659 534197 364282
832427110416637440 627843 543583 534131 364284
832427110434849920 627714 543528 534128 364272
832427110453062400 627808 543553 534099 364231
832427110471274880 628002 543665 534190 364291
832427110489487360 628425 543881 534355 364295
832427110507699840 628760 544030 534510 364244
832427110525912320 629084 544267 534657 364252
832427110544124800 629363 544383 534797 364202
832427110562337280 629765 544561 534872 364250
832427110580549760 629957 544691 534943 364263
832427110598762240 630114 544738 534981 364239
832427110616974720 630209 544795 535058 364244
832427110635187200 630205 544788 535082 364267
832427110653399680 630182 544810 535043 364272
832427110671612160 630295 544854 535092 364243
832427110689824640 630393 544887 535101 364247
832427110708037248 630462 544995 535169 364183
832427110726249728 630634 545008 535180 364188
832427110744462208 630849 545112 535287 364248
832427110762674688 631090 545290 535396 364197
832427110780887168 631371 545420 535479 364246
832427110799099648 631604 545551 535551 364237
832427110817312128 631855 545739 535715 364243
832427110835524608 632135 545815 535776 364252
832427110853737088 632436 545974 535865 364267
832427110871949568 632496 546028 535899 364225
832427110890162070 632330 545905 535858 364216
832427110908373632 632022 545742 535712 364233
832427110926585216 631505 545480 535561 364159
832427110944796672 630992 545190 535337 364222
832427110963008256 630447 544919 535129 364252
832427110981219712 629739 544538 534876 364179
832427110999431296 629134 544272 534637 364213
832427111017642880 628527 543894 534420 364197
832427111035854336 628036 543630 534209 364205
832427111054065920 627797 543492 534127 364212
832427111072277376 627667 543428 534099 364221
832427111090488960 627664 543521 534182 364230
832427111108700544 627764 543501 534160 364220
832427111126912000 627971 543611 534219 364237
832427111145123584 628296 543810 534399 364182
832427111163335168 628631 543939 534473 364164
832427111181546624 628937 544128 534524 364160
832427111199758208 629279 544293 534659 364247
832427111217969664 629470 544401 534735 364237
832427111236181248 629667 544571 534907 364230
832427111254392832 629905 544635 534945 364175
832427111272604288 630073 544782 534999 364216
832427111290815872 630180 544816 535050 364226
832427111309027328 630296 544888 535099 364218
832427111327238912 630383 544914 535054 364230
832427111345450496 630386 544898 535117 364155
832427111363661952 630438 544933 535163 364226
832427111381873536 630471 544942 535221 364217
832427111400084992 630624 545042 535204 364199
832427111418296576 630741 545099 535274 364240
832427111436508160 631068 545233 535439 364223
832427111454719616 631371 545407 535553 364201
832427111472931200 631701 545576 535619 364233
832427111491142784 632090 545740 535735 364200
832427111509354240 632362 545978 535859 364208
832427111527565824 632559 546023 535970 364275
832427111545777280 632552 546034 535935 364245
832427111563988832 632290 545898 535853 364202
832427111582202624 631866 545626 535671 364253
832427111600416384 631293 545365 535513 364220
832427111618630272 630615 545022 535250 364276
832427111636844032 630086 544749 535036 364306
832427111655057792 629469 544386 534761 364226
832427111673271552 628831 544109 534505 364171
832427111691485440 628429 543920 534374 364207
832427111709699200 628133 543742 534318 364252
832427111727912960 627937 543663 534192 364194
832427111746126848 627891 543640 534165 364239
832427111764340608 627874 543621 534153 364246
832427111782554368 627880 543613 534197 364168
832427111800768128 627962 543650 534204 364183
832427111818982016 628253 543840 534363 364164
832427111837195776 628622 544016 534522 364255
832427111855409536 628986 544159 534610 364230
832427111873623424 629319 544392 534739 364288
832427111891837184 629600 544505 534844 364211
832427111910050944 629850 544660 534963 364261
832427111928264704 630145 544749 535045 364270
832427111946478592 630239 544771 535026 364234
832427111964692352 630302 544814 535081 364205
832427111982906112 630299 544851 535158 364242
832427112001120000 630323 544847 535072 364202
832427112019333760 630264 544803 535028 364196
832427112037547520 630302 544831 535088 364192
832427112055761280 630485 544888 535158 364207
832427112073975168 630737 545048 535251 364231
832427112092188928 631065 545171 535307 364222
832427112110402688 631347 545332 535444 364218
832427112128616576 631680 545529 535600 364241
832427112146830336 631936 545724 535718 364262
832427112165044096 632262 545894 535815 364223
832427112183257856 632479 545983 535937 364256
832427112201471706 632500 546024 535939 364282
832427112219686400 632312 545919 535904 364201
832427112237901056 632088 545737 535781 364273
832427112256115712 631605 545514 535547 364268
832427112274330368 631048 545198 535327 364245
832427112292545024 630469 544891 535106 364211
832427112310759680 629894 544607 534872 364193
832427112328974464 629337 544308 534674 364207
832427112347189120 628740 544063 534524 364228
832427112365403776 628280 543806 534348 364227
832427112383618432 627925 543679 534210 364219
832427112401833088 627717 543556 534185 364197
832427112420047744 627622 543533 534100 364304
832427112438262400 627749 543557 534155 364282
832427112456477056 627909 543628 534248 364255
832427112474691712 628207 543738 534320 364237
832427112492906368 628538 543943 534438 364265
832427112511121152 628944 544155 534554 364278
832427112529335808 629266 544282 534649 364250
832427112547550464 629466 544441 534725 364190
832427112565765120 629738 544573 534888 364234
832427112583979776 629833 544717 534923 364253
832427112602194432 630008 544703 534970 364195
832427112620409088 630149 544861 535018 364203
832427112638623744 630319 544839 535031 364241
832427112656838400 630345 544815 535094 364176
832427112675053056 630435 544909 535171 364255
832427112693267712 630495 544864 535167 364243
832427112711482496 630569 544937 535199 364240
832427112729697152 630764 545041 535250 364255
832427112747911808 630881 545115 535355 364302
832427112766126464 631121 545165 535418 364197
832427112784341120 631341 545363 535476 364256
832427112802555776 631604 545520 535549 364258
832427112820770432 631962 545702 535688 364234
832427112838985088 632320 545887 535823 364200
832427112857199744 632592 546024 535879 364188
832427112875414428 632600 546079 535941 364211
832427112893628544 632379 545928 535904 364218
832427112911842688 632031 545762 535724 364220
832427112930056832 631534 545481 535574 364238
832427112948270848 630906 545135 535284 364239
832427112966484992 630187 544794 535108 364206
832427112984699136 629505 544461 534826 364276
832427113002913280 628883 544127 534570 364269
832427113021127424 628501 543930 534454 364265
832427113039341440 628084 543784 534289 364206
832427113057555584 627857 543617 534190 364219
832427113075769728 627753 543529 534153 364302
832427113093983872 627824 543515 534121 364275
832427113112197888 627826 543573 534144 364233
832427113130412032 628050 543718 534257 364251
832427113148626176 628348 543915 534383 364241
832427113166840320 628580 543981 534401 364274
832427113185054464 628906 544203 534628 364324
832427113203268480 629219 544288 534700 364244
832427113221482624 629577 544505 534791 364240
832427113239696768 629826 544605 534884 364159
832427113257910912 630047 544706 534983 364219
832427113276125056 630182 544818 535008 364248
832427113294339072 630265 544850 535070 364237
832427113312553216 630408 544916 535114 364170
832427113330767360 630453 544903 535152 364196
832427113348981504 630510 544983 535231 364251
832427113367195648 630450 544961 535156 364257
832427113385409664 630444 544996 535156 364243
832427113403623808 630658 545001 535221 364244
832427113421837952 630921 545184 535336 364235
832427113440052096 631249 545331 535465 364248
832427113458266240 631469 545464 535555 364234
832427113476480256 631895 545629 535673 364234
832427113494694400 632273 545818 535764 364202
832427113512908544 632602 546026 535902 364216
832427113531122650 632685 546097 535951 364239
832427113549334656 632391 546031 535956 364222
832427113567546624 632026 545833 535809 364202
832427113585758464 631570 545562 535615 364234
832427113603970432 631048 545284 535382 364159
832427113622182272 630447 544970 535170 364168
832427113640394240 629959 544696 534992 364224
832427113658606080 629390 544340 534784 364254
832427113676818048 628829 544066 534529 364271
832427113695030016 628485 543863 534449 364278
832427113713241856 628182 543744 534305 364252
832427113731453824 627952 543622 534137 364290
832427113749665664 627722 543629 534138 364263
832427113767877632 627777 543563 534144 364319
832427113786089472 627820 543588 534212 364292
832427113804301440 628016 543725 534274 364259
832427113822513408 628422 543930 534439 364289
832427113840725248 628802 544079 534555 364280
832427113858937216 629118 544226 534700 364230
832427113877149056 629423 544386 534826 364244
832427113895361024 629813 544618 534935 364243
832427113913572864 629993 544738 534971 364278
832427113931784832 630158 544786 535067 364280
832427113949996800 630209 544761 535035 364204
832427113968208640 630293 544837 535133 364297
832427113986420608 630266 544811 535031 364286
832427114004632448 630319 544900 535055 364228
832427114022844416 630453 544931 535183 364229
832427114041056256 630482 544961 535183 364227
832427114059268224 630616 545005 535228 364189
832427114077480192 630865 545097 535324 364241
832427114095692032 631218 545323 535412 364261
832427114113904000 631398 545415 535451 364248
832427114132115840 631664 545592 535594 364210
832427114150327808 631914 545687 535705 364204
832427114168539648 632169 545776 535780 364230
832427114186751526 632411 545885 535874 364220
832427114204963584 632617 546026 536016 364233
832427114223175680 632384 545925 535896 364224
832427114241387776 632102 545778 535756 364212
832427114259599872 631556 545511 535572 364228
832427114277811968 631041 545251 535338 364263
832427114296024192 630464 544897 535128 364229
832427114314236288 629831 544626 534885 364204
832427114332448384 629213 544260 534692 364275
832427114350660480 628558 543955 534424 364251
832427114368872576 628045 543706 534251 364224
832427114387084672 627812 543561 534105 364227
832427114405296768 627656 543502 534108 364208
832427114423508864 627695 543536 534099 364238
832427114441721088 627782 543558 534146 364262
832427114459933184 627944 543615 534216 364207
832427114478145280 628367 543782 534334 364236
832427114496357376 628734 544009 534522 364257
832427114514569472 629026 544170 534666 364248
832427114532781568 629291 544325 534680 364261
832427114550993664 629490 544442 534735 364260
832427114569205760 629659 544510 534859 364203
832427114587417984 629927 544700 534978 364277
832427114605630080 630111 544774 535043 364244
832427114623842176 630272 544827 535103 364241
832427114642054272 630256 544848 535049 364227
832427114660266368 630242 544808 535048 364197
832427114678478464 630322 544916 535119 364182
832427114696690560 630498 544949 535189 364262
832427114714902656 630554 544967 535189 364212
832427114733114880 630702 544999 535269 364224
832427114751326976 630767 545114 535263 364244
832427114769539072 630974 545255 535355 364217
832427114787751168 631357 545464 535534 364272
832427114805963264 631732 545610 535587 364189
832427114824175360 632051 545795 535765 364209
832427114842387456 632390 545907 535860 364208
832427114860599650 632580 545961 535942 364223
832427114878814336 632565 546018 535944 364194
832427114897028992 632321 545849 535850 364227
832427114915243648 631867 545701 535720 364233
832427114933458304 631279 545355 535521 364263
832427114951672960 630627 545028 535204 364274
832427114969887616 629988 544660 534971 364190
832427114988102400 629457 544447 534819 364190
832427115006317056 628913 544237 534620 364295
832427115024531712 628436 543936 534386 364253
832427115042746368 628167 543733 534334 364247
832427115060961024 627971 543608 534171 364204
832427115079175680 627922 543639 534200 364212
832427115097390336 627896 543568 534180 364238
832427115115604992 627983 543612 534200 364236
832427115133819648 628051 543714 534255 364259
832427115152034304 628269 543838 534342 364250
832427115170249088 628646 543980 534451 364217
832427115188463744 628934 544142 534608 364193
832427115206678400 629356 544346 534713 364238
832427115224893056 629629 544457 534766 364206
832427115243107712 629928 544619 534920 364217
832427115261322368 630069 544714 534934 364228
832427115279537024 630263 544826 535053 364258
832427115297751680 630268 544864 535071 364211
832427115315966336 630342 544895 535062 364209
832427115334180992 630296 544850 535100 364233
832427115352395776 630232 544823 535073 364240
832427115370610432 630347 544860 535098 364260
832427115388825088 630488 544930 535157 364224
832427115407039744 630726 545084 535243 364250
832427115425254400 631018 545186 535399 364252
832427115443469056 631235 545321 535499 364234
832427115461683712 631559 545503 535593 364235
832427115479898368 631969 545666 535661 364211
832427115498113024 632308 545835 535835 364153
832427115516327680 632566 546034 535967 364189
832427115534542378 632527 546022 535951 364166
832427115552756224 632272 545877 535835 364252
832427115570970112 631999 545671 535715 364248
832427115589183872 631629 545501 535554 364227
832427115607397760 631065 545218 535347 364221
832427115625611648 630550 544921 535172 364175
832427115643825408 629885 544613 534903 364220
832427115662039296 629300 544366 534715 364195
832427115680253184 628846 544100 534535 364261
832427115698466944 628364 543908 534352 364208
832427115716680832 628028 543682 534217 364231
832427115734894720 627754 543505 534077 364225
832427115753108480 627657 543427 534056 364265
832427115771322368 627715 543476 534126 364296
832427115789536128 627938 543570 534190 364237
832427115807750016 628237 543823 534282 364190
832427115825963904 628571 543959 534416 364242
832427115844177664 628890 544140 534563 364252
832427115862391552 629307 544335 534744 364323
832427115880605440 629577 544481 534842 364264
832427115898819200 629807 544618 534930 364284
832427115917033088 630006 544669 534956 364265
832427115935246976 630027 544699 535048 364238
832427115953460736 630141 544771 535043 364206
832427115971674624 630315 544807 535109 364195
832427115989888512 630391 544919 535175 364244
832427116008102272 630378 544859 535091 364165
832427116026316160 630423 544919 535134 364182
832427116044530048 630465 544925 535141 364218
832427116062743808 630681 545058 535224 364208
832427116080957696 630878 545150 535282 364195
832427116099171584 631132 545303 535431 364248
832427116117385344 631359 545400 535535 364248
832427116135599232 631606 545537 535621 364243
832427116153813120 631903 545695 535731 364196
832427116172026880 632348 545895 535807 364252
832427116190240768 632613 545990 535904 364269
832427116208454588 632564 546012 535916 364186
832427116226669184 632400 545888 535845 364275
832427116244883840 632091 545753 535783 364256
832427116263098496 631594 545546 535572 364229
832427116281313152 630888 545156 535297 364227
832427116299527808 630305 544913 535093 364265
832427116317742464 629578 544561 534844 364218
832427116335957248 628944 544150 534573 364239
832427116354171904 628466 543884 534389 364229
832427116372386560 628105 543707 534257 364241
832427116390601216 627964 543538 534207 364208
832427116408815872 627842 543566 534138 364155
832427116427030528 627818 543516 534160 364216
832427116445245184 627930 543623 534218 364169
832427116463459840 628074 543739 534275 364223
832427116481674496 628358 543854 534361 364229
832427116499889152 628618 544009 534485 364229
832427116518103936 628912 544147 534608 364277
832427116536318592 629083 544259 534628 364271
832427116554533248 629441 544421 534811 364210
832427116572747904 629803 544587 535002 364253
832427116590962560 630026 544681 535013 364199
832427116609177216 630245 544784 535049 364225
832427116627391872 630290 544896 535058 364170
832427116645606528 630347 544841 535062 364216
832427116663821184 630443 544898 535092 364253
832427116682035840 630452 544929 535140 364229
832427116700250496 630380 544899 535107 364193
832427116718465280 630486 544930 535184 364227
832427116736679936 630707 545016 535259 364230
832427116754894592 630876 545084 535330 364233
832427116773109248 631130 545219 535414 364221
832427116791323904 631557 545457 535510 364244
832427116809538560 631900 545611 535628 364256
832427116827753216 632233 545841 535781 364208
832427116845967872 632613 546059 535911 364221
832427116864182642 632698 546069 535954 364234
832427116882396416 632491 545963 535902 364269
832427116900610176 632187 545801 535810 364234
832427116918823936 631702 545539 535560 364204
832427116937037696 631124 545225 535373 364209
832427116955251456 630473 544936 535153 364157
832427116973465216 630012 544669 535011 364253
832427116991679104 629448 544393 534832 364239
832427117009892864 628877 544118 534573 364241
832427117028106624 628519 543919 534371 364226
832427117046320384 628193 543721 534289 364229
832427117064534144 627882 543616 534211 364199
832427117082747904 627854 543621 534179 364197
832427117100961664 627732 543502 534105 364187
832427117119175424 627781 543574 534181 364218
832427117137389184 628071 543672 534220 364203
832427117155602944 628412 543843 534372 364236
832427117173816704 628759 544056 534526 364246
832427117192030464 629083 544144 534600 364217
832427117210244352 629439 544334 534747 364244
832427117228458112 629751 544544 534916 364257
832427117246671872 629922 544671 534969 364260
832427117264885632 630147 544768 535051 364178
832427117283099392 630206 544842 535013 364191
832427117301313152 630217 544854 534970 364178
832427117319526912 630142 544846 535019 364224
832427117337740672 630296 544861 535077 364270
832427117355954432 630330 544803 535088 364237
832427117374168192 630452 544860 535204 364230
832427117392381952 630595 545017 535231 364185
832427117410595712 630873 545112 535276 364182
832427117428809600 631256 545288 535407 364226
832427117447023360 631451 545465 535536 364212
832427117465237120 631677 545610 535622 364173
832427117483450848 631962 545768 535722 364231
832427117501663360 632304 545825 535827 364246
832427117519875840 632523 545887 535858 364268
832427117538088320 632491 545968 535893 364214
832427117556300800 632343 545886 535864 364240
832427117574513280 632020 545806 535752 364221
832427117592725760 631558 545520 535598 364248
832427117610938240 631026 545221 535353 364241
832427117629150720 630384 544987 535115 364255
832427117647363328 629796 544631 534872 364259
832427117665575808 629115 544289 534661 364235
832427117683788288 628552 543964 534380 364196
832427117702000768 628168 543842 534368 364296
832427117720213248 627873 543623 534261 364252
832427117738425728 627719 543546 534130 364209
832427117756638208 627688 543512 534127 364225
832427117774850688 627848 543547 534148 364210
832427117793063168 628009 543578 534185 364182
832427117811275648 628322 543806 534331 364264
832427117829488128 628669 544010 534510 364254
832427117847700608 628965 544137 534615 364240
832427117865913088 629216 544300 534684 364229
832427117884125568 629469 544400 534770 364186
832427117902338048 629600 544545 534845 364149
832427117920550656 629899 544629 534946 364252
832427117938763136 630085 544763 535015 364231
832427117956975616 630152 544742 535052 364223
832427117975188096 630231 544812 535051 364226
832427117993400576 630372 544871 535116 364221
832427118011613056 630495 544918 535170 364235
832427118029825536 630534 544943 535152 364230
832427118048038016 630548 544964 535202 364200
832427118066250496 630620 545058 535195 364172
832427118084462976 630834 545152 535287 364188
832427118102675456 630981 545189 535417 364156
832427118120887944 631340 545372 535474 364159
832427118139100416 631674 545590 535679 364254
832427118157312896 631992 545700 535769 364169
832427118175525376 632434 545926 535950 364222
832427118193737856 632628 546025 536007 364185
832427118211950336 632562 546009 535951 364169
832427118230162816 632314 545890 535876 364190
832427118248375296 631988 545715 535805 364178
832427118266587776 631313 545352 535461 364161
832427118284800384 630672 545044 535265 364203
832427118303012864 629968 544755 534987 364221
832427118321225344 629436 544408 534762 364184
832427118339437824 628900 544120 534587 364213
832427118357650304 628448 543896 534382 364213
832427118375862784 628149 543733 534279 364251
832427118394075264 627982 543623 534200 364213
832427118412287744 627935 543590 534194 364201
832427118430500224 627890 543639 534197 364225
832427118448712704 627917 543662 534206 364201
832427118466925184 628081 543772 534279 364288
832427118485137664 628266 543794 534317 364261
832427118503350144 628628 544001 534461 364237
832427118521562624 629032 544200 534577 364235
832427118539775104 629374 544336 534707 364294
832427118557987712 629613 544472 534836 364256
832427118576200192 629917 544654 534989 364262
832427118594412672 630112 544715 534991 364264
832427118612625152 630306 544839 535101 364268
832427118630837632 630348 544834 535085 364246
832427118649050112 630269 544824 535035 364265
832427118667262592 630275 544845 535090 364239
832427118685475072 630254 544841 535047 364168
832427118703687552 630359 544848 535119 364191
832427118721900032 630552 545000 535236 364243
832427118740112512 630705 544989 535273 364278
832427118758325042 630993 545174 535385 364213
832427118776539008 631352 545344 535483 364217
832427118794753024 631678 545519 535602 364228
832427118812967040 632027 545753 535756 364216
832427118831181056 632291 545800 535832 364196
832427118849395072 632542 545993 535885 364195
832427118867609088 632541 546004 535946 364222
832427118885823104 632371 545900 535832 364282
832427118904037120 632109 545781 535760 364298
832427118922251136 631716 545613 535620 364228
832427118940465152 631046 545243 535380 364268
832427118958679168 630482 544871 535153 364204
832427118976893184 630016 544691 535017 364268
832427118995107200 629467 544406 534751 364205
832427119013321216 628880 544133 534467 364196
832427119031535232 628395 543878 534381 364220
832427119049749248 628020 543693 534308 364224
832427119067963264 627716 543599 534143 364269
832427119086177280 627612 543469 534096 364263
832427119104391296 627701 543539 534124 364260
832427119122605312 627889 543680 534240 364235
832427119140819328 628145 543817 534303 364210
832427119159033344 628557 543969 534409 364213
832427119177247360 628872 544136 534559 364209
832427119195461376 629385 544328 534724 364285
832427119213675392 629628 544465 534862 364222
832427119231889408 629814 544613 534915 364255
832427119250103424 630015 544624 534988 364315
832427119268317440 630035 544697 534998 364236
832427119286531456 630114 544729 535022 364241
832427119304745472 630248 544789 535047 364203
832427119322959488 630292 544831 535082 364243
832427119341173504 630426 544796 535171 364282
832427119359387520 630403 544893 535204 364243
832427119377601536 630549 544860 535237 364271
832427119395815538 630774 545033 535272 364287
832427119414029568 631008 545156 535357 364260
832427119432243584 631189 545340 535394 364233
832427119450457472 631443 545419 535544 364289
832427119468671488 631626 545523 535588 364229
832427119486885376 631958 545730 535734 364208
832427119505099392 632308 545892 535843 364243
832427119523313408 632590 545943 535905 364191
832427119541527296 632587 545989 535953 364212
832427119559741312 632374 545920 535902 364241
832427119577955328 632085 545775 535734 364281
832427119596169216 631574 545491 535544 364226
832427119614383232 630959 545185 535366 364187
832427119632597120 630300 544839 535107 364277
832427119650811136 629597 544477 534849 364289
832427119669025152 628917 544132 534563 364291
832427119687239040 628469 543872 534399 364269
832427119705453056 628195 543718 534307 364242
832427119723667072 627871 543589 534212 364234
832427119741880960 627846 543577 534179 364270
832427119760094976 627787 543505 534160 364255
832427119778308864 627998 543668 534276 364265
832427119796522880 628199 543799 534346 364286
832427119814736896 628382 543864 534309 364173
832427119832950784 628688 544065 534542 364254
832427119851164800 628894 544097 534503 364202
832427119869378688 629132 544266 534592 364270
832427119887592704 629506 544438 534764 364253
832427119905806720 629750 544572 534841 364227
832427119924020608 629934 544663 534904 364211
832427119942234624 630156 544672 535023 364229
832427119960448640 630245 544698 535071 364224
832427119978662528 630406 544849 535122 364213
832427119996876544 630485 544937 535167 364286
832427120015090432 630437 544945 535143 364246
832427120033304448 630389 544890 535108 364245
832427120051518464 630486 544970 535202 364253
832427120069732326 630585 545022 535170 364227
832427120087946752 630868 545140 535275 364241
832427120106161152 631182 545324 535385 364245
832427120124375424 631463 545441 535532 364222
832427120142589824 631817 545636 535663 364239
832427120160804096 632208 545788 535825 364235
832427120179018496 632626 546013 536007 364239
832427120197232768 632712 546076 536014 364246
832427120215447168 632626 546029 535989 364261
832427120233661440 632192 545824 535850 364268
832427120251875840 631751 545667 535669 364255
832427120270090112 631118 545259 535429 364187
832427120288304512 630583 545011 535141 364218
832427120306518784 630053 544664 534995 364270
832427120324733184 629347 544391 534792 364202
832427120342947456 628809 544054 534573 364244
832427120361161856 628384 543856 534384 364168
832427120379376128 628229 543802 534373 364211
832427120397590528 628033 543795 534287 364226
832427120415804800 627814 543620 534193 364229
832427120434019200 627800 543606 534168 364235
832427120452233472 627787 543563 534152 364257
832427120470447872 628055 543728 534354 364228
832427120488662144 628374 543870 534383 364229
832427120506876544 628734 544082 534585 364225
832427120525090816 629152 544199 534653 364235
832427120543305216 629499 544370 534825 364297
832427120561519488 629855 544554 534934 364236
832427120579733888 630084 544710 534983 364248
832427120597948288 630186 544746 535009 364190
832427120616162560 630222 544766 535049 364153
832427120634376960 630267 544842 535122 364245
832427120652591232 630234 544728 535026 364214
832427120670805632 630277 544837 535119 364176
832427120689019904 630315 544852 535142 364225
832427120707234304 630428 544930 535182 364210
832427120725448576 630649 545014 535263 364217
832427120743662848 630855 545155 535328 364250
832427120761876608 631185 545300 535407 364246
832427120780090368 631449 545492 535500 364185
832427120798304256 631722 545539 535621 364262
832427120816518016 631998 545677 535714 364212
832427120834731776 632179 545795 535770 364199
832427120852945536 632429 545897 535864 364240
832427120871159424 632545 545976 535955 364270
832427120889373184 632286 545903 535859 364269
832427120907586944 631955 545755 535755 364225
832427120925800832 631570 545488 535637 364204
832427120944014592 630945 545237 535361 364196
832427120962228352 630422 544842 535160 364237
832427120980442112 629831 544649 534930 364234
832427120998656000 629254 544297 534710 364177
832427121016869760 628590 544020 534457 364236
832427121035083520 628153 543783 534300 364202
832427121053297408 627848 543514 534196 364190
832427121071511168 627735 543481 534139 364227
832427121089724928 627737 543497 534119 364218
832427121107938688 627860 543595 534198 364265
832427121126152576 628019 543650 534258 364212
832427121144366336 628356 543795 534380 364279
832427121162580096 628688 544014 534489 364233
832427121180793984 629049 544183 534627 364259
832427121199007744 629285 544289 534700 364241
832427121217221504 629517 544459 534785 364263
832427121235435264 629696 544554 534887 364234
832427121253649152 629872 544596 534904 364209
832427121271862912 630047 544724 535017 364261
832427121290076672 630175 544794 535018 364213
832427121308290560 630276 544848 535075 364186
832427121326504320 630310 544850 535076 364224
832427121344718080 630367 544897 535077 364261
832427121362931840 630459 544927 535159 364258
832427121381145722 630536 544932 535092 364216
832427121399359488 630707 544971 535172 364222
832427121417573248 630839 545089 535286 364257
832427121435787008 630998 545218 535377 364202
832427121454000768 631398 545412 535503 364240
832427121472214528 631743 545601 535602 364197
832427121490428288 632051 545770 535742 364189
832427121508642048 632517 545959 535908 364212
832427121526855808 632673 545986 535980 364206
832427121545069568 632636 545988 535990 364226
832427121563283200 632397 545869 535874 364211
832427121581496960 632008 545733 535771 364209
832427121599710720 631322 545349 535478 364190
832427121617924480 630657 545067 535248 364243
832427121636138240 629942 544732 534962 364231
832427121654352000 629449 544347 534757 364167
832427121672565760 628951 544096 534564 364250
832427121690779520 628502 543875 534408 364223
832427121708993280 628182 543744 534241 364229
832427121727207040 627954 543596 534184 364209
832427121745420800 627907 543598 534205 364234
832427121763634560 627906 543521 534177 364216
832427121781848320 627907 543641 534188 364160
832427121800062080 628083 543679 534190 364194
832427121818275840 628299 543827 534349 364221
832427121836489600 628608 544000 534500 364267
832427121854703360 628952 544148 534540 364267
832427121872917120 629278 544307 534685 364233
832427121891130752 629591 544478 534861 364256
832427121909344512 629880 544611 534920 364227
832427121927558272 630149 544731 535007 364208
832427121945772032 630319 544862 535050 364261
832427121963985792 630348 544881 535148 364177
832427121982199552 630400 544916 535098 364258
832427122000413312 630400 544865 535088 364241
832427122018627072 630288 544827 535039 364250
832427122036840832 630369 544852 535049 364199
832427122055054592 630518 544960 535116 364209
832427122073268352 630766 545116 535279 364189
832427122091482112 631024 545202 535374 364166
832427122109695832 631330 545340 535428 364226
832427122127908992 631599 545498 535644 364211
832427122146122112 631875 545667 535728 364265
832427122164335232 632224 545839 535834 364229
832427122182548480 632487 546018 535904 364234
832427122200761600 632564 545974 535946 364213
832427122218974720 632355 545856 535903 364234
832427122237187840 632132 545797 535789 364244
832427122255400960 631653 545603 535612 364302
832427122273614080 631128 545274 535382 364235
832427122291827328 630547 544948 535118 364267
832427122310040448 629920 544638 534953 364269
832427122328253568 629314 544272 534727 364276
832427122346466688 628856 544048 534541 364206
832427122364679808 628389 543835 534374 364224
832427122382892928 628064 543636 534270 364206
832427122401106176 627763 543510 534141 364191
832427122419319296 627561 543508 534073 364227
832427122437532416 627671 543512 534116 364190
832427122455745536 627855 543604 534175 364219
832427122473958656 628186 543754 534338 364217
832427122492171904 628545 543957 534456 364218
832427122510385024 628935 544093 534528 364165
832427122528598144 629328 544240 534697 364183
832427122546811264 629597 544369 534802 364191
832427122565024384 629836 544509 534920 364213
832427122583237504 630055 544687 535018 364281
832427122601450752 630115 544781 535054 364265
832427122619663872 630129 544776 535014 364288
832427122637876992 630284 544805 535053 364246
832427122656090112 630320 544840 535055 364214
832427122674303232 630347 544875 535075 364184
832427122692516352 630457 544918 535149 364223
832427122710729600 630553 545019 535191 364220
832427122728942720 630740 545095 535290 364178
832427122747155840 630927 545193 535335 364210
832427122765368960 631184 545298 535422 364206
832427122783582848 631456 545419 535517 364251
832427122801796736 631640 545576 535626 364297
832427122820010496 631958 545653 535671 364258
832427122838224384 632274 545856 535870 364244
832427122856438272 632511 545941 535939 364228
832427122874652032 632573 545979 535971 364220
832427122892865920 632315 545916 535874 364174
832427122911079808 632017 545694 535726 364192
832427122929293568 631529 545476 535568 364217
832427122947507456 630951 545167 535375 364222
832427122965721344 630269 544834 535103 364226
832427122983935104 629677 544515 534841 364224
832427123002148992 628914 544191 534580 364183
832427123020362752 628488 543949 534391 364251
832427123038576640 628119 543777 534300 364250
832427123056790528 627909 543611 534199 364246
832427123075004288 627874 543586 534185 364254
832427123093218176 627821 543584 534207 364258
832427123111432064 627894 543601 534182 364207
832427123129645824 628066 543669 534261 364248
832427123147859712 628366 543784 534371 364238
832427123166073600 628668 543964 534450 364288
832427123184287360 628960 544145 534606 364258
832427123202501248 629185 544239 534685 364222
832427123220715136 629551 544416 534818 364213
832427123238928896 629859 544592 534952 364245
832427123257142784 630033 544700 534995 364263
832427123275356672 630216 544751 535057 364219
832427123293570432 630292 544813 535168 364231
832427123311784320 630440 544880 535139 364238
832427123329998208 630389 544891 535148 364240
832427123348211968 630411 544891 535161 364133
832427123366425856 630399 544861 535137 364166
832427123384639616 630529 544976 535253 364253
832427123402853504 630696 545037 535329 364257
832427123421067392 630951 545154 535396 364208
832427123439281164 631237 545266 535468 364248
832427123457493632 631594 545528 535618 364259
832427123475706112 631918 545621 535691 364253
832427123493918464 632286 545861 535855 364239
832427123512130944 632623 546022 535976 364245
832427123530343424 632782 546131 535993 364226
832427123548555776 632569 546007 535952 364190
832427123566768256 632242 545817 535855 364251
832427123584980736 631741 545610 535647 364257
832427123603193216 631191 545342 535402 364276
832427123621405568 630557 544984 535139 364217
832427123639618048 630024 544757 535011 364285
832427123657830528 629394 544364 534699 364160
832427123676042880 628932 544052 534538 364231
832427123694255360 628494 543893 534391 364255
832427123712467840 628196 543762 534340 364195
832427123730680192 627982 543575 534217 364203
832427123748892672 627806 543534 534195 364217
832427123767105152 627746 543538 534144 364219
832427123785317632 627801 543584 534153 364235
832427123803529984 628057 543726 534299 364222
832427123821742464 628400 543886 534406 364212
832427123839954944 628759 544109 534526 364206
832427123858167296 629142 544187 534620 364258
832427123876379776 629530 544342 534779 364242
832427123894592256 629757 544540 534820 364182
832427123912804608 630035 544706 534969 364217
832427123931017088 630191 544773 535046 364236
832427123949229568 630259 544751 535042 364222
832427123967442048 630206 544846 535138 364238
832427123985654400 630170 544832 535057 364254
832427124003866880 630271 544853 535051 364219
832427124022079360 630306 544837 535098 364240
832427124040291712 630474 544882 535139 364255
832427124058504192 630664 545031 535248 364255
832427124076716672 630827 545092 535311 364197
832427124094929024 631223 545308 535421 364230
832427124113141492 631477 545398 535438 364218
832427124131355904 631750 545570 535602 364217
832427124149570304 631943 545696 535672 364224
832427124167784704 632282 545887 535838 364213
832427124185999104 632498 545938 535904 364205
832427124204213504 632524 545987 535943 364197
832427124222428032 632383 545950 535881 364214
832427124240642432 632072 545744 535775 364207
832427124258856832 631593 545496 535578 364254
832427124277071232 631065 545243 535416 364251
832427124295285632 630569 544955 535208 364220
832427124313500032 629971 544643 535023 364228
832427124331714432 629313 544316 534752 364222
832427124349928832 628698 544018 534457 364228
832427124368143232 628219 543778 534327 364244
832427124386357760 627815 543577 534190 364223
832427124404572160 627799 543595 534158 364255
832427124422786560 627730 543549 534149 364217
832427124441000960 627791 543534 534120 364197
832427124459215360 627960 543657 534186 364264
832427124477429760 628349 543808 534393 364276
832427124495644160 628720 544058 534501 364242
832427124513858560 629003 544215 534633 364260
832427124532072960 629285 544310 534740 364247
832427124550287488 629538 544414 534765 364268
832427124568501888 629763 544547 534896 364259
832427124586716288 629977 544657 534935 364205
832427124604930688 630159 544743 535030 364229
832427124623145088 630306 544818 535068 364253
832427124641359488 630303 544832 535058 364255
832427124659573888 630379 544919 535097 364294
832427124677788288 630459 544944 535156 364229
832427124696002688 630581 545005 535136 364263
832427124714217216 630649 544979 535220 364229
832427124732431616 630787 545088 535291 364225
832427124750646016 630916 545148 535304 364238
832427124768860398 631158 545223 535444 364231
832427124787075072 631389 545398 535546 364242
832427124805289728 631763 545615 535619 364282
832427124823504384 632066 545786 535753 364261
832427124841719040 632482 545965 535975 364263
832427124859933696 632685 546085 535990 364253
832427124878148352 632721 546051 536023 364325
832427124896363136 632480 546002 535971 364309
832427124914577792 631995 545812 535801 364214
832427124932792448 631399 545456 535542 364190
832427124951007104 630762 545000 535248 364191
832427124969221760 630028 544704 535022 364174
832427124987436416 629474 544431 534820 364223
832427125005651072 628974 544204 534592 364253
832427125023865728 628503 543921 534406 364240
832427125042080384 628140 543668 534239 364209
832427125060295040 627948 543630 534206 364217
832427125078509824 627930 543590 534193 364183
832427125096724480 627972 543657 534219 364194
832427125114939136 627960 543612 534201 364201
832427125133153792 628080 543714 534253 364183
832427125151368448 628294 543839 534317 364238
832427125169583104 628549 543945 534422 364209
832427125187797760 629030 544209 534583 364236
832427125206012416 629369 544364 534772 364246
832427125224227072 629678 544489 534883 364213
832427125242441728 629979 544618 535009 364251
832427125260656512 630114 544687 534991 364204
832427125278871168 630344 544870 535095 364210
832427125297085824 630345 544859 535104 364208
832427125315300480 630340 544903 535194 364250
832427125333515136 630294 544823 535117 364187
832427125351729792 630267 544820 535133 364270
832427125369944448 630414 544884 535133 364239
832427125388159104 630531 544937 535156 364262
832427125406373790 630711 545040 535231 364211
832427125424588416 630971 545176 535320 364264
832427125442803072 631212 545270 535472 364208
832427125461017728 631556 545442 535506 364225
832427125479232384 632018 545688 535725 364213
832427125497447040 632349 545819 535875 364269
832427125515661696 632652 545961 535950 364240
832427125533876480 632607 546022 535997 364218
832427125552091136 632391 545967 535873 364196
832427125570305792 632122 545808 535794 364216
832427125588520448 631704 545584 535656 364224
832427125606735104 631122 545266 535395 364179
832427125624949760 630529 544960 535222 364195
832427125643164416 629940 544654 534965 364201
832427125661379072 629406 544384 534732 364268
832427125679593728 628826 544115 534563 364244
832427125697808384 628451 543924 534400 364252
832427125716023168 628032 543676 534287 364272
832427125734237824 627807 543554 534137 364244
832427125752452480 627612 543483 534087 364182
832427125770667136 627729 543500 534136 364227
832427125788881792 627929 543605 534222 364194
832427125807096448 628150 543743 534290 364182
832427125825311104 628537 543907 534486 364248
832427125843525760 628807 544021 534542 364186
832427125861740416 629171 544250 534675 364192
832427125879955072 629500 544415 534831 364204
832427125898169856 629745 544561 534892 364191
832427125916384512 629959 544625 534974 364182
832427125934599168 630053 544715 534971 364189
832427125952813824 630073 544691 534952 364138
832427125971028480 630186 544764 535066 364235
832427125989243136 630295 544847 535095 364191
832427126007457792 630313 544846 535066 364190
832427126025672448 630388 544885 535151 364174
832427126043887104 630537 544918 535216 364235
832427126062101760 630778 545076 535304 364251
832427126080316416 630979 545185 535361 364253
832427126098531186 631200 545306 535460 364261
832427126116745088 631411 545400 535521 364245
832427126134958976 631642 545466 535557 364260
832427126153172736 631905 545594 535713 364222
832427126171386624 632316 545839 535868 364254
832427126189600512 632664 546024 535980 364258
832427126207814272 632639 546028 535984 364238
832427126226028160 632328 545851 535886 364226
832427126244242048 631986 545706 535793 364214
832427126262455808 631581 545508 535663 364229
832427126280669696 631011 545269 535362 364212
832427126298883584 630374 544870 535121 364294
832427126317097344 629606 544529 534847 364234
832427126335311232 628957 544183 534588 364244
832427126353524992 628421 543870 534387 364207
832427126371738880 628153 543737 534306 364216
832427126389952768 627935 543611 534207 364189
832427126408166528 627891 543583 534194 364178
832427126426380416 627832 543535 534192 364206
832427126444594304 627873 543561 534170 364197
832427126462808064 628157 543761 534310 364244
832427126481021952 628460 543945 534461 364202
832427126499235840 628730 544033 534507 364203
832427126517449600 628992 544181 534594 364240
832427126535663488 629220 544276 534681 364236
832427126553877376 629474 544431 534782 364209
832427126572091136 629819 544590 534930 364254
832427126590305024 630022 544678 534936 364199
832427126608518912 630175 544775 535018 364233
832427126626732672 630328 544834 535063 364196
832427126644946560 630427 544785 535101 364207
832427126663160448 630499 544883 535154 364237
832427126681374208 630524 544929 535167 364212
832427126699588096 630514 544938 535153 364192
832427126717801984 630540 544969 535187 364230
832427126736015744 630614 545037 535235 364222
832427126754229632 630911 545123 535297 364201
832427126772443396 631203 545249 535397 364166
832427126790658048 631513 545443 535548 364183
832427126808872704 631821 545620 535660 364169
832427126827087360 632150 545780 535782 364189
832427126845302016 632566 546017 535936 364247
832427126863516672 632690 546093 535996 364223
832427126881731328 632579 546018 535926 364240
832427126899946112 632314 545849 535791 364221
832427126918160768 631784 545564 535650 364174
832427126936375424 631135 545247 535395 364231
832427126954590080 630572 545007 535244 364258
832427126972804736 630052 544682 535033 364222
832427126991019392 629455 544377 534787 364273
832427127009234048 628954 544094 534571 364254
832427127027448704 628507 543885 534459 364235
832427127045663360 628176 543681 534252 364179
832427127063878016 627990 543637 534211 364193
832427127082092800 627844 543582 534115 364203
832427127100307456 627802 543584 534196 364243
832427127118522112 627802 543528 534068 364236
832427127136736768 628099 543629 534254 364219
832427127154951424 628402 543857 534395 364246
832427127173166080 628802 544111 534543 364179
832427127191380736 629169 544240 534661 364228
832427127209595392 629473 544403 534796 364285
832427127227810048 629769 544523 534894 364223
832427127246024704 630027 544716 535018 364248
832427127264239360 630211 544781 535104 364224
832427127282454144 630337 544795 535123 364216
832427127300668800 630267 544786 535103 364201
832427127318883456 630237 544820 535085 364223
832427127337098112 630248 544837 535084 364247
832427127355312768 630382 544927 535144 364240
832427127373527424 630502 544887 535158 364229
832427127391742080 630621 544978 535141 364220
832427127409956736 630834 545113 535292 364237
832427127428171392 631086 545283 535413 364241
832427127446386118 631383 545399 535493 364265
832427127464598912 631786 545605 535709 364235
832427127482811648 632005 545714 535784 364253
832427127501024256 632242 545841 535839 364187
832427127519236992 632467 545988 535961 364242
832427127537449728 632535 545969 535943 364240
832427127555662336 632355 545921 535879 364263
832427127573875072 632081 545737 535817 364220
832427127592087680 631677 545593 535626 364218
832427127610300416 631090 545252 535373 364202
832427127628513152 630546 544965 535175 364211
832427127646725760 629939 544656 535007 364222
832427127664938496 629330 544333 534682 364201
832427127683151232 628725 544001 534486 364199
832427127701363840 628253 543771 534351 364269
832427127719576576 627900 543618 534197 364236
832427127737789184 627748 543578 534117 364218
832427127756001920 627775 543527 534161 364227
832427127774214656 627836 543597 534206 364176
832427127792427264 628064 543651 534270 364228
832427127810640000 628267 543808 534329 364219
832427127828852736 628676 544060 534526 364178
832427127847065344 628943 544172 534560 364154
832427127865278080 629353 544393 534752 364235
832427127883490816 629499 544458 534767 364219
832427127901703424 629719 544630 534972 364255
832427127919916160 629842 544583 534869 364257
832427127938128768 630070 544752 534990 364234
832427127956341504 630223 544854 535083 364227
832427127974554240 630305 544908 535121 364234
832427127992766848 630451 544960 535157 364259
832427128010979584 630393 544922 535193 364223
832427128029192320 630537 544967 535161 364262
832427128047404928 630659 545019 535243 364279
832427128065617664 630771 545079 535209 364203
832427128083830272 630952 545217 535339 364224
832427128102043008 631141 545261 535447 364261
832427128120255600 631395 545400 535438 364252
832427128138468992 631776 545718 535738 364290
832427128156682368 632138 545816 535811 364235
832427128174895616 632535 545987 535994 364273
832427128193108992 632725 546069 535987 364271
832427128211322240 632654 546079 536021 364270
832427128229535616 632434 545973 535922 364234
832427128247748864 631992 545785 535802 364237
832427128265962240 631410 545522 535585 364274
832427128284175488 630776 545126 535306 364241
832427128302388864 630073 544728 535025 364197
832427128320602112 629492 544427 534850 364258
832427128338815488 628904 544112 534572 364230
832427128357028736 628514 543982 534469 364268
832427128375242112 628193 543698 534273 364259
832427128393455360 628048 543653 534227 364245
832427128411668736 627980 543647 534218 364236
832427128429881984 627930 543655 534217 364228
832427128448095360 628009 543652 534214 364252
832427128466308608 628150 543749 534275 364299
832427128484521984 628326 543869 534365 364229
832427128502735232 628563 544048 534439 364231
832427128520948608 628945 544174 534634 364239
832427128539161856 629328 544353 534745 364241
832427128557375232 629659 544515 534871 364214
832427128575588480 629966 544670 534980 364231
832427128593801856 630133 544746 534997 364241
832427128612015104 630308 544921 535124 364237
832427128630228480 630367 544930 535187 364182
832427128648441728 630363 544912 535129 364171
832427128666655104 630409 544964 535172 364244
832427128684868352 630383 544921 535177 364248
832427128703081728 630312 544910 535174 364257
832427128721294976 630522 545023 535185 364208
832427128739508352 630776 545134 535312 364189
832427128757721600 631030 545277 535405 364230
832427128775934834 631353 545393 535507 364245
832427128794149504 631660 545524 535631 364259
832427128812364160 632037 545737 535746 364250
832427128830578816 632402 545948 535891 364252
832427128848793472 632561 546119 535955 364242
832427128867008128 632647 546083 535979 364218
832427128885222784 632537 545997 535970 364264
832427128903437568 632154 545826 535844 364252
832427128921652224 631692 545590 535666 364259
832427128939866880 631109 545242 535375 364256
832427128958081536 630597 544925 535236 364264
832427128976296192 629987 544620 535007 364207
832427128994510848 629449 544392 534803 364220
832427129012725504 628909 544143 534583 364245
832427129030940160 628451 543903 534409 364233
832427129049154816 628095 543769 534329 364231
832427129067369472 627815 543624 534161 364239
832427129085584256 627673 543526 534151 364253
832427129103798912 627735 543522 534137 364241
832427129122013568 627870 543573 534177 364227
832427129140228224 628194 543739 534297 364218
832427129158442880 628528 543935 534403 364222
832427129176657536 628895 544101 534507 364227
832427129194872192 629247 544276 534704 364227
832427129213086848 629543 544498 534871 364202
832427129231301504 629847 544670 534894 364244
832427129249516160 630040 544750 534949 364275
832427129267730944 630105 544778 535000 364214
832427129285945600 630235 544814 535074 364242
832427129304160256 630262 544815 535080 364208
832427129322374912 630322 544779 535108 364204
832427129340589568 630416 544933 535158 364260
832427129358804224 630533 545007 535214 364256
832427129377018880 630579 545058 535277 364242
832427129395233536 630837 545182 535354 364273
832427129413448226 630969 545226 535353 364256
832427129431662848 631201 545326 535445 364211
832427129449877504 631359 545396 535452 364191
832427129468092160 631620 545524 535596 364191
832427129486306816 631948 545694 535740 364245
832427129504521472 632406 545949 535872 364229
832427129522736128 632586 546043 535939 364189
832427129540950912 632619 546046 535934 364196
832427129559165568 632423 545929 535871 364223
832427129577380224 632122 545769 535807 364220
832427129595594880 631641 545506 535619 364227
832427129613809536 631047 545262 535435 364273
832427129632024192 630378 544895 535157 364219
832427129650238848 629674 544601 534965 364259
832427129668453504 628999 544231 534670 364247
832427129686668160 628478 543835 534434 364217
832427129704882816 628097 543702 534249 364195
832427129723097600 627889 543589 534206 364225
832427129741312256 627816 543512 534193 364226
832427129759526912 627790 543592 534167 364174
832427129777741568 627902 543633 534190 364229
832427129795956224 628212 543757 534268 364252
832427129814170880 628524 543890 534427 364230
832427129832385536 628759 544016 534500 364216
832427129850600192 628929 544127 534558 364222
832427129868814848 629163 544279 534673 364228
832427129887029504 629515 544445 534789 364214
832427129905244288 629837 544611 534879 364223
832427129923458944 630093 544782 534973 364246
832427129941673600 630268 544783 535074 364253
832427129959888256 630368 544824 535129 364260
832427129978102912 630513 544918 535156 364247
832427129996317568 630518 544986 535182 364250
832427130014532224 630538 545006 535204 364247
832427130032746880 630463 544938 535205 364237
832427130050961536 630528 545013 535136 364292
832427130069176192 630617 545074 535188 364315
832427130087390848 630984 545204 535390 364243
832427130105605622 631203 545274 535435 364227
832427130123819520 631488 545456 535576 364229
832427130142033408 631853 545701 535686 364241
832427130160247168 632211 545880 535817 364243
832427130178461056 632677 546074 536015 364239
832427130196674944 632753 546180 536026 364274
832427130214888704 632553 546090 536004 364211
832427130233102592 632257 545877 535887 364194
832427130251316480 631788 545605 535655 364170
832427130269530240 631208 545354 535432 364244
832427130287744128 630618 545063 535226 364238
832427130305958016 630060 544718 535000 364206
832427130324171776 629477 544398 534789 364218
832427130342385664 628945 544075 534539 364227
832427130360599424 628585 543926 534482 364316
832427130378813312 628290 543751 534372 364251
832427130397027200 628059 543653 534257 364219
832427130415240960 627895 543609 534193 364306
832427130433454848 627839 543560 534201 364296
832427130451668736 627856 543552 534187 364269
832427130469882496 628083 543606 534253 364212
832427130488096384 628416 543811 534392 364184
832427130506310272 628773 543965 534482 364209
832427130524524032 629064 544201 534691 364202
832427130542737920 629453 544366 534784 364190
832427130560951808 629817 544519 534972 364272
832427130579165568 630141 544672 534990 364238
832427130597379456 630319 544830 535058 364268
832427130615593344 630327 544901 535116 364183
832427130633807104 630336 544894 535154 364246
832427130652020992 630289 544858 535139 364201
832427130670234880 630412 544897 535126 364189
832427130688448640 630444 544940 535120 364212
832427130706662528 630566 544980 535209 364224
832427130724876416 630685 545068 535279 364224
832427130743090176 630861 545097 535244 364208
832427130761304064 631111 545230 535406 364229
832427130779517832 631485 545481 535598 364251
832427130797732608 631754 545599 535620 364219
832427130815947392 631985 545652 535745 364224
832427130834162176 632222 545825 535808 364185
832427130852376960 632461 545975 535948 364196
832427130870591744 632484 545970 535918 364158
832427130888806528 632286 545872 535857 364212
832427130907021312 632048 545724 535799 364183
832427130925236096 631597 545523 535628 364193
832427130943450880 631096 545286 535430 364237
832427130961665792 630559 545008 535142 364143
832427130979880576 629970 544711 534930 364216
832427130998095360 629404 544359 534778 364214
832427131016310144 628756 544025 534559 364223
832427131034524928 628263 543817 534333 364207
832427131052739712 627811 543578 534163 364187
832427131070954496 627783 543533 534148 364245
832427131089169280 627810 543561 534196 364243
832427131107384064 627851 543552 534153 364197
832427131125598848 628037 543641 534252 364268
832427131143813632 628300 543813 534358 364298
832427131162028416 628716 543994 534491 364225
832427131180243200 629016 544178 534636 364219
832427131198457984 629314 544315 534692 364226
832427131216672768 629509 544419 534742 364213
832427131234887552 629752 544553 534872 364229
832427131253102464 629903 544667 534937 364256
832427131271317248 630105 544688 534997 364253
832427131289532032 630294 544795 535084 364253
832427131307746816 630299 544839 535083 364159
832427131325961600 630426 544921 535140 364217
832427131344176384 630417 544914 535131 364227
832427131362391168 630584 544957 535196 364268
832427131380605952 630721 545064 535263 364236
832427131398820736 630794 545079 535265 364262
832427131417035520 630925 545176 535310 364247
832427131435250304 631170 545304 535416 364231
832427131453465130 631401 545383 535493 364204
832427131471679104 631726 545549 535593 364211
832427131489893120 632067 545762 535745 364250
832427131508107008 632467 545958 535903 364250
832427131526321024 632641 546058 535979 364196
832427131544534912 632573 545990 535993 364162
832427131562748928 632453 546001 535906 364239
832427131580962944 632031 545718 535756 364226
832427131599176832 631433 545464 535554 364244
832427131617390848 630727 545120 535297 364218
832427131635604864 630037 544700 535013 364219
832427131653818752 629475 544473 534844 364197
832427131672032768 628957 544191 534574 364217
832427131690246656 628500 543963 534423 364225
832427131708460672 628197 543774 534349 364211
832427131726674688 627942 543634 534212 364205
832427131744888576 627911 543537 534124 364202
832427131763102592 627944 543557 534132 364169
832427131781316608 627980 543672 534298 364259
832427131799530496 628112 543727 534342 364184
832427131817744512 628311 543901 534357 364223
832427131835958400 628548 543971 534405 364178
832427131854172416 628993 544195 534577 364177
832427131872386432 629339 544376 534743 364185
832427131890600320 629675 544486 534816 364174
832427131908814336 629922 544666 534936 364177
832427131927028224 630121 544816 534994 364241
832427131945242240 630333 544891 535084 364188
832427131963456256 630470 544922 535172 364270
832427131981670144 630414 544905 535128 364184
832427131999884160 630370 544833 535108 364185
832427132018098176 630347 544908 535124 364202
832427132036312064 630300 544897 535117 364202
832427132054526080 630533 544995 535243 364237
832427132072739968 630735 545021 535271 364227
832427132090953984 631043 545165 535354 364214
832427132109168000 631351 545380 535477 364207
832427132127381918 631611 545476 535602 364178
832427132145595904 631983 545706 535768 364238
832427132163809920 632373 545935 535899 364237
832427132182023936 632665 546077 535958 364191
832427132200237824 632661 546057 535951 364184
832427132218451840 632406 545922 535816 364221
832427132236665856 632099 545699 535694 364224
832427132254879872 631722 545566 535594 364244
832427132273093888 631146 545289 535430 364184
832427132291307776 630549 544963 535226 364229
832427132309521792 629908 544608 534989 364173
832427132327735808 629324 544352 534789 364253
832427132345949824 628916 544097 534570 364241
832427132364163840 628466 543878 534401 364293
832427132382377728 628146 543694 534300 364265
832427132400591744 627868 543616 534236 364220
832427132418805760 627732 543520 534177 364241
832427132437019776 627792 543515 534147 364231
832427132455233792 627949 543657 534221 364254
832427132473447680 628225 543801 534334 364255
832427132491661696 628579 543935 534443 364201
832427132509875712 628924 544136 534576 364228
832427132528089728 629277 544280 534682 364203
832427132546303744 629568 544464 534785 364184
832427132564517632 629850 544659 534934 364224
832427132582731648 630049 544776 535006 364227
832427132600945664 630126 544786 535039 364258
832427132619159680 630157 544803 535050 364260
832427132637373696 630282 544848 535084 364207
832427132655587584 630311 544882 535109 364203
832427132673801600 630328 544850 535136 364194
832427132692015616 630454 544986 535156 364238
832427132710229632 630524 544980 535235 364189
832427132728443648 630753 545022 535318 364244
832427132746657536 630978 545187 535396 364240
832427132764871552 631233 545332 535484 364244
832427132783085564 631494 545492 535606 364224
832427132801299584 631753 545617 535669 364274
832427132819513600 631974 545750 535831 364294
832427132837727616 632375 545887 535956 364246
832427132855941632 632570 546044 536046 364216
832427132874155648 632650 546038 536055 364218
832427132892369664 632434 545956 535934 364231
832427132910583680 632178 545843 535835 364271
832427132928797696 631608 545559 535552 364185
832427132947011712 631077 545267 535423 364203
832427132965225728 630462 544980 535168 364256
832427132983439744 629751 544583 534847 364182
832427133001653760 629126 544242 534689 364233
832427133019867776 628503 543923 534427 364216
832427133038081792 628159 543759 534307 364235
832427133056295808 627952 543642 534237 364246
832427133074509824 627871 543604 534183 364273
832427133092723840 627844 543598 534237 364255
832427133110937856 627942 543571 534246 364219
832427133129151872 628229 543766 534331 364210
832427133147365888 628518 543933 534436 364271
832427133165579904 628827 544089 534510 364227
832427133183793920 629107 544193 534673 364255
832427133202007936 629259 544335 534731 364186
832427133220221952 629611 544481 534848 364209
832427133238435968 629837 544603 534905 364177
832427133256649984 630140 544724 535008 364229
832427133274864000 630312 544800 535083 364261
832427133293078016 630326 544880 535090 364205
832427133311292032 630394 544837 535111 364195
832427133329506048 630494 544899 535205 364252
832427133347720064 630461 544862 535136 364226
832427133365934080 630468 544942 535168 364167
832427133384148096 630590 544973 535172 364184
832427133402362112 630662 545022 535211 364245
832427133420576068 630945 545184 535364 364213
832427133438789248 631270 545363 535484 364241
832427133457002368 631566 545481 535550 364189
832427133475215488 631912 545628 535690 364217
832427133493428736 632260 545824 535796 364238
832427133511641856 632634 546058 535987 364194
832427133529854976 632788 546097 535977 364184
832427133548068096 632682 546128 536025 364245
832427133566281216 632289 545920 535875 364219
832427133584494336 631859 545684 535742 364219
832427133602707584 631200 545352 535483 364171
832427133620920704 630593 544945 535206 364188
832427133639133824 630107 544737 535109 364270
832427133657346944 629558 544445 534856 364241
832427133675560064 628911 544153 534579 364179
832427133693773184 628432 543918 534468 364147
832427133711986432 628222 543737 534343 364211
832427133730199552 628028 543652 534202 364177
832427133748412672 627910 543601 534206 364214
832427133766625792 627856 543586 534258 364223
832427133784838912 627921 543591 534214 364207
832427133803052160 628012 543633 534271 364207
832427133821265280 628366 543829 534385 364175
832427133839478400 628756 544015 534511 364229
832427133857691520 629079 544254 534648 364216
832427133875904640 629441 544394 534740 364149
832427133894117760 629812 544610 534904 364192
832427133912331008 630111 544710 535077 364212
832427133930544128 630208 544802 535108 364245
832427133948757248 630257 544836 535148 364209
832427133966970368 630272 544837 535105 364191
832427133985183488 630310 544842 535149 364203
832427134003396608 630283 544781 535062 364208
832427134021609856 630332 544834 535110 364202
832427134039822976 630508 544919 535221 364267
832427134058036096 630699 545054 535273 364256
832427134076249216 630878 545165 535371 364208
832427134094462336 631168 545320 535458 364189
832427134112675480 631473 545505 535551 364159
832427134130888576 631672 545553 535610 364158
832427134149101696 632099 545789 535809 364230
832427134167314816 632393 545937 535934 364201
832427134185528064 632534 546092 535972 364196
832427134203741184 632521 545993 535936 364156
832427134221954304 632323 545942 535834 364207
832427134240167424 632095 545761 535729 364229
832427134258380544 631624 545465 535511 364254
832427134276593664 631081 545225 535371 364245
832427134294806912 630510 544904 535204 364242
832427134313020032 629934 544663 534966 364242
832427134331233152 629367 544399 534809 364223
832427134349446272 628733 544071 534571 364247
832427134367659392 628314 543805 534347 364271
832427134385872512 627937 543656 534220 364200
832427134404085760 627809 543535 534176 364252
832427134422298880 627785 543550 534183 364237
832427134440512000 627875 543642 534215 364230
832427134458725120 628066 543706 534223 364220
832427134476938240 628392 543839 534375 364287
832427134495151488 628755 544020 534504 364243
832427134513364608 629053 544199 534637 364242
832427134531577728 629293 544337 534717 364175
832427134549790848 629552 544489 534794 364210
832427134568003968 629831 544588 534915 364207
832427134586217088 629982 544687 534987 364202
832427134604430336 630086 544689 534972 364234
832427134622643456 630251 544782 535075 364211
832427134640856576 630352 544903 535116 364208
832427134659069696 630403 544916 535143 364212
832427134677282816 630462 544884 535168 364211
832427134695495936 630595 544988 535178 364169
832427134713709184 630726 545039 535259 364207
832427134731922304 630866 545126 535348 364272
832427134750135424 631028 545235 535422 364236
832427134768348544 631187 545294 535453 364251
832427134786561750 631359 545432 535518 364315
832427134804774912 631672 545567 535646 364250
832427134822988032 632085 545769 535819 364209
832427134841201152 632438 545983 535956 364216
832427134859414400 632658 546052 536020 364285
832427134877627520 632600 545966 535886 364234
832427134895840640 632414 545912 535896 364248
832427134914053760 632022 545718 535771 364223
832427134932266880 631390 545438 535551 364222
832427134950480000 630733 545139 535357 364270
832427134968693248 630105 544737 535144 364281
832427134986906368 629491 544435 534825 364235
832427135005119488 628963 544199 534644 364210
832427135023332608 628516 543904 534465 364201
832427135041545728 628138 543714 534298 364190
832427135059758848 628015 543687 534211 364186
832427135077972096 627855 543650 534196 364175
832427135096185216 627938 543643 534245 364208
832427135114398336 627979 543688 534165 364182
832427135132611456 628125 543771 534288 364191
832427135150824576 628331 543818 534350 364173
832427135169037696 628639 543937 534517 364213
832427135187250944 628969 544180 534659 364292
832427135205464064 629310 544342 534718 364265
832427135223677184 629642 544507 534910 364293
832427135241890304 629907 544625 535004 364262
832427135260103424 630183 544745 535013 364222
832427135278316672 630364 544874 535036 364224
832427135296529792 630472 544994 535145 364253
832427135314742912 630380 544969 535132 364247
832427135332956032 630411 544932 535219 364227
832427135351169152 630347 544895 535148 364242
832427135369382272 630331 544903 535123 364217
832427135387595520 630484 544903 535116 364213
832427135405808640 630743 545084 535245 364235
832427135424021760 631059 545240 535430 364244
832427135442234880 631380 545346 535532 364225
832427135460448012 631736 545527 535604 364256
832427135478661120 632126 545798 535842 364270
832427135496874240 632425 545916 535910 364260
832427135515087360 632646 546093 536024 364224
832427135533300608 632649 546127 535984 364238
832427135551513728 632457 546021 535950 364268
832427135569726848 632109 545802 535867 364284
832427135587939968 631741 545550 535703 364260
832427135606153088 631146 545313 535493 364210
832427135624366208 630602 545036 535268 364231
832427135642579456 630051 544777 535116 364238
832427135660792576 629464 544492 534825 364256
832427135679005696 628951 544172 534620 364235
832427135697218816 628510 543949 534427 364248
832427135715431936 628109 543736 534265 364248
832427135733645056 627890 543580 534187 364205
832427135751858304 627735 543535 534161 364206
832427135770071424 627736 543506 534103 364173
832427135788284544 627953 543611 534216 364197
832427135806497664 628183 543765 534319 364248
832427135824710784 628568 543995 534537 364248
832427135842924032 628906 544158 534641 364245
832427135861137152 629233 544327 534711 364244
832427135879350272 629682 544489 534814 364256
832427135897563392 629839 544583 534900 364219
832427135915776512 630034 544699 535016 364225
832427135933989632 630135 544746 535040 364238
832427135952202880 630180 544737 535109 364228
832427135970416000 630291 544882 535144 364258
832427135988629120 630351 544873 535123 364231
832427136006842240 630479 544891 535213 364282
832427136025055360 630500 544930 535188 364258
832427136043268480 630561 545006 535204 364247
832427136061481728 630739 545107 535246 364205
832427136079694848 631016 545211 535405 364268
832427136097907968 631203 545309 535460 364226
832427136116121088 631476 545469 535532 364262
832427136134334282 631746 545553 535649 364207
832427136152546176 631950 545716 535770 364267
832427136170758016 632336 545907 535888 364197
832427136188969856 632603 546036 535995 364211
832427136207181824 632594 546049 535952 364254
832427136225393664 632409 545949 535833 364251
832427136243605504 632122 545820 535750 364246
832427136261817344 631677 545529 535623 364222
832427136280029312 631028 545257 535413 364188
832427136298241152 630444 544961 535192 364250
832427136316452992 629732 544540 534896 364247
832427136334664832 629068 544171 534633 364204
832427136352876800 628511 543989 534439 364209
832427136371088640 628227 543782 534298 364213
832427136389300480 628066 543676 534325 364263
832427136407512320 627867 543594 534205 364165
832427136425724288 627855 543528 534186 364191
832427136443936128 627994 543631 534198 364213
832427136462147968 628255 543800 534319 364293
832427136480359808 628471 543889 534400 364245
832427136498571776 628757 544021 534528 364227
832427136516783616 629026 544218 534654 364252
832427136534995456 629303 544398 534793 364240
832427136553207296 629531 544506 534787 364251
832427136571419264 629860 544688 534952 364276
832427136589631104 630045 544742 534968 364162
832427136607842944 630306 544844 535106 364264
832427136626054784 630389 544890 535069 364227
832427136644266752 630487 544910 535081 364216
832427136662478592 630571 544949 535123 364223
832427136680690432 630606 544989 535210 364246
832427136698902272 630512 545004 535194 364238
832427136717114112 630620 545029 535186 364204
832427136735326080 630708 545019 535254 364199
832427136753537920 630847 545127 535302 364188
832427136771749760 631224 545296 535458 364211
832427136789961634 631532 545509 535603 364218
832427136808175232 631877 545629 535754 364267
832427136826388864 632258 545876 535872 364240
832427136844602368 632564 545989 535941 364229
832427136862816000 632724 546150 536066 364177
832427136881029504 632680 546065 536021 364216
832427136899243136 632324 545883 535901 364204
832427136917456640 631867 545633 535671 364229
832427136935670272 631261 545324 535440 364219
832427136953883904 630754 545029 535214 364224
832427136972097408 630064 544620 534994 364265
832427136990311040 629491 544417 534786 364235
832427137008524544 628981 544147 534590 364247
832427137026738176 628584 543960 534449 364287
832427137044951808 628280 543733 534365 364231
832427137063165312 628082 543665 534272 364196
832427137081378944 627983 543595 534244 364261
832427137099592448 627874 543621 534212 364268
832427137117806080 627862 543647 534244 364221
832427137136019584 628017 543737 534255 364230
832427137154233216 628408 543932 534401 364276
832427137172446848 628812 544067 534565 364199
832427137190660352 629176 544316 534724 364253
832427137208873984 629510 544430 534859 364289
832427137227087488 629732 544555 534970 364231
832427137245301120 630142 544744 535063 364264
832427137263514752 630289 544878 535160 364239
832427137281728256 630415 544930 535156 364226
832427137299941888 630303 544888 535109 364205
832427137318155392 630318 544897 535163 364256
832427137336369024 630276 544913 535077 364242
832427137354582528 630365 544883 535082 364250
832427137372796160 630530 544961 535123 364243
832427137391009792 630618 544993 535222 364200
832427137409223296 630829 545114 535265 364223
832427137427436878 631112 545273 535360 364172
832427137445650816 631486 545443 535534 364233
832427137463864704 631882 545682 535638 364284
832427137482078720 632092 545818 535747 364248
832427137500292608 632361 545926 535816 364201
832427137518506624 632553 546006 535979 364279
832427137536720512 632585 545976 535964 364253
832427137554934528 632410 545940 535887 364244
832427137573148416 632121 545841 535819 364224
832427137591362432 631705 545526 535599 364265
832427137609576320 631185 545355 535481 364277
832427137627790208 630497 544884 535191 364275
832427137646004224 630066 544690 535038 364269
832427137664218112 629423 544431 534812 364212
832427137682432128 628766 544111 534538 364205
832427137700646016 628349 543809 534405 364272
832427137718860032 627942 543674 534253 364253
832427137737073920 627872 543608 534159 364290
832427137755287936 627736 543511 534144 364168
832427137773501824 627895 543599 534183 364161
832427137791715840 628067 543697 534272 364188
832427137809929728 628355 543778 534422 364193
832427137828143616 628738 544029 534583 364327
832427137846357632 629115 544214 534687 364247
832427137864571520 629341 544376 534809 364307
832427137882785536 629560 544526 534854 364242
832427137900999424 629780 544611 534887 364272
832427137919213440 629927 544720 534978 364264
832427137937427328 630146 544789 535073 364199
832427137955641344 630231 544802 535068 364226
832427137973855232 630348 544841 535101 364176
832427137992069120 630460 544939 535140 364261
832427138010283136 630501 544942 535155 364225
832427138028497024 630580 544957 535196 364219
832427138046711040 630635 545013 535293 364203
832427138064924928 630811 545073 535295 364239
832427138083138944 630962 545167 535398 364235
832427138101352832 631135 545259 535472 364264
832427138119566808 631300 545394 535512 364240
832427138137780864 631766 545543 535709 364243
832427138155994880 632149 545779 535872 364299
832427138174208768 632527 545982 535940 364240
832427138192422784 632681 546072 536021 364214
832427138210636672 632578 546037 535963 364186
832427138228850688 632440 545985 535909 364237
832427138247064704 632087 545747 535774 364242
832427138265278592 631547 545554 535630 364196
832427138283492608 630860 545188 535372 364188
832427138301706624 630145 544785 535048 364195
832427138319920512 629470 544459 534827 364224
832427138338134528 628876 544161 534566 364186
832427138356348416 628451 543958 534493 364231
832427138374562432 628197 543739 534364 364218
832427138392776448 627957 543658 534219 364260
832427138410990336 627902 543594 534203 364229
832427138429204352 627964 543623 534243 364245
832427138447418368 628005 543651 534283 364229
832427138465632256 628186 543774 534370 364267
832427138483846272 628455 543905 534451 364295
832427138502060160 628701 543983 534527 364278
832427138520274176 629057 544213 534599 364267
832427138538488192 629404 544352 534756 364234
832427138556702080 629688 544518 534864 364175
832427138574916096 629879 544653 534939 364169
832427138593129984 630125 544773 535046 364234
832427138611344000 630276 544834 535135 364208
832427138629558016 630388 544866 535152 364161
832427138647771904 630466 544914 535183 364206
832427138665985920 630392 544921 535150 364233
832427138684199936 630439 544973 535166 364259
832427138702413824 630349 544883 535169 364248
832427138720627840 630477 544913 535200 364213
832427138738841728 630750 545020 535280 364247
832427138757055744 631095 545191 535402 364221
832427138775269760 631386 545393 535528 364264
832427138793483596 631728 545567 535650 364260
832427138811697664 632078 545782 535722 364248
832427138829911680 632404 545902 535868 364248
832427138848125568 632695 546104 536044 364174
832427138866339584 632689 546156 536021 364225
832427138884553472 632507 546021 535982 364209
832427138902767488 632189 545791 535821 364227
832427138920981504 631732 545515 535674 364205
832427138939195392 631205 545270 535431 364206
832427138957409408 630634 544972 535221 364226
832427138975623424 630058 544735 535022 364196
832427138993837312 629486 544441 534728 364261
832427139012051328 628968 544192 534571 364229
832427139030265216 628568 543966 534423 364272
832427139048479232 628181 543789 534340 364314
832427139066693248 627958 543689 534244 364292
832427139084907136 627780 543575 534152 364250
832427139103121152 627814 543575 534193 364299
832427139121335040 627923 543646 534269 364301
832427139139549056 628222 543802 534384 364225
832427139157763072 628588 543972 534475 364295
832427139175976960 628949 544193 534591 364263
832427139194190976 629254 544340 534716 364242
832427139212404992 629572 544483 534841 364279
832427139230618880 629853 544652 534947 364235
832427139248832896 630109 544754 535101 364262
832427139267046784 630214 544868 535109 364278
832427139285260800 630266 544836 535141 364277
832427139303474816 630246 544776 535040 364164
832427139321688704 630300 544790 535103 364192
832427139339902720 630333 544790 535165 364189
832427139358116736 630557 544955 535219 364263
832427139376330624 630638 544961 535212 364235
832427139394544640 630755 545119 535358 364236
832427139412758528 631020 545195 535361 364269
832427139430972544 631335 545362 535528 364255
832427139449186560 631527 545484 535620 364257
832427139467400376 631726 545607 535655 364265
832427139485614848 632016 545770 535780 364239
832427139503829376 632336 545910 535870 364222
832427139522043904 632586 546035 535929 364203
832427139540258432 632612 546058 535939 364212
832427139558473088 632494 545988 535950 364277
832427139576687616 632172 545745 535801 364263
832427139594902144 631638 545523 535585 364256
832427139613116672 631045 545240 535365 364242
832427139631331200 630451 544921 535194 364250
832427139649545728 629796 544605 534947 364183
832427139667760256 629166 544245 534701 364247
832427139685974784 628538 543988 534463 364230
832427139704189440 628138 543716 534342 364228
832427139722403968 627954 543629 534223 364240
832427139740618496 627923 543599 534185 364213
832427139758833024 627837 543582 534189 364233
832427139777047552 627937 543648 534243 364213
832427139795262080 628129 543738 534290 364203
832427139813476608 628508 543922 534435 364185
832427139831691136 628760 544038 534507 364174
832427139849905792 629031 544141 534638 364243
832427139868120320 629265 544290 534690 364211
832427139886334848 629505 544470 534815 364271
832427139904549376 629767 544589 534943 364251
832427139922763904 630053 544762 535043 364248
832427139940978432 630235 544797 535158 364262
832427139959192960 630357 544835 535165 364274
832427139977407616 630386 544923 535155 364254
832427139995622144 630479 544962 535180 364235
832427140013836672 630552 544994 535200 364256
832427140032051200 630563 545000 535219 364224
832427140050265728 630566 545032 535243 364259
832427140068480256 630717 545069 535284 364312
832427140086694784 630917 545195 535383 364256
832427140104909312 631216 545306 535496 364226
832427140123123968 631507 545421 535571 364221
832427140141338528 631876 545687 535726 364248
832427140159551872 632212 545858 535847 364239
832427140177765248 632536 546064 535977 364166
832427140195978624 632765 546134 536004 364272
832427140214192000 632565 546064 535960 364204
832427140232405504 632348 545949 535888 364224
832427140250618880 631894 545677 535707 364202
832427140268832256 631225 545354 535411 364229
832427140287045632 630630 545033 535286 364219
832427140305259008 630042 544659 534992 364185
832427140323472384 629526 544454 534821 364248
832427140341685888 628932 544147 534580 364210
832427140359899264 628517 543930 534418 364274
832427140378112640 628261 543791 534283 364241
832427140396326016 628077 543683 534236 364197
832427140414539392 627938 543611 534254 364204
832427140432752768 627871 543604 534185 364233
832427140450966272 627952 543639 534198 364268
832427140469179648 628152 543748 534245 364250
832427140487393024 628391 543845 534343 364208
832427140505606400 628715 543983 534448 364170
832427140523819776 629100 544194 534622 364193
832427140542033152 629474 544434 534762 364194
832427140560246656 629799 544553 534922 364187
832427140578460032 630052 544715 534975 364185
832427140596673408 630262 544767 535030 364200
832427140614886784 630379 544875 535137 364258
832427140633100160 630408 544883 535197 364250
832427140651313536 630311 544802 535135 364230
832427140669527040 630248 544850 535112 364206
832427140687740416 630361 544876 535155 364206
832427140705953792 630561 544918 535150 364224
832427140724167168 630652 545038 535276 364220
832427140742380544 630933 545190 535411 364205
832427140760593920 631187 545324 535431 364201
832427140778807424 631535 545518 535603 364231
832427140797020810 631728 545624 535626 364195
832427140815235072 632032 545734 535800 364212
832427140833449344 632366 545942 535920 364262
832427140851663488 632619 546046 535984 364233
832427140869877760 632616 546079 535923 364270
832427140888092032 632418 545936 535879 364210
832427140906306176 632132 545783 535808 364223
832427140924520448 631715 545540 535672 364265
832427140942734720 631112 545237 535466 364234
832427140960948992 630546 544980 535247 364191
832427140979163136 630043 544689 534967 364201
832427140997377408 629433 544433 534838 364240
832427141015591680 628761 544112 534590 364222
832427141033805824 628267 543826 534344 364193
832427141052020096 627929 543679 534253 364213
832427141070234368 627859 543570 534153 364202
832427141088448512 627787 543535 534156 364200
832427141106662784 627825 543589 534234 364258
832427141124877056 628007 543649 534241 364244
832427141143091200 628356 543847 534418 364258
832427141161305472 628714 544068 534563 364199
832427141179519744 629128 544282 534723 364256
832427141197734016 629336 544375 534708 364199
832427141215948160 629580 544533 534855 364236
832427141234162432 629790 544637 534926 364257
832427141252376704 629920 544708 535002 364246
832427141270590848 630091 544734 535015 364258
832427141288805120 630228 544785 535021 364247
832427141307019392 630278 544845 535132 364274
832427141325233536 630376 544885 535138 364286
832427141343447808 630381 544875 535220 364226
832427141361662080 630529 544928 535226 364227
832427141379876224 630700 545075 535259 364267
832427141398090496 630767 545126 535275 364245
832427141416304768 630920 545241 535339 364208
832427141434518944 631152 545294 535396 364226
832427141452732800 631360 545404 535427 364189
832427141470946688 631650 545580 535645 364196
832427141489160576 632038 545776 535754 364254
832427141507374336 632503 545928 535861 364273
832427141525588224 632736 546113 535979 364257
832427141543802112 632633 546035 535953 364248
832427141562016000 632513 546015 535911 364206
832427141580229888 632122 545804 535811 364234
832427141598443776 631547 545520 535525 364223
832427141616657536 630859 545189 535349 364203
832427141634871424 630176 544800 535106 364203
832427141653085312 629521 544452 534839 364210
832427141671299200 629023 544189 534657 364243
832427141689513088 628527 543964 534446 364236
832427141707726976 628219 543760 534316 364221
832427141725940736 628029 543698 534249 364212
832427141744154624 627946 543612 534265 364247
832427141762368512 627996 543633 534239 364218
832427141780582400 628071 543700 534246 364248
832427141798796288 628109 543740 534310 364177
832427141817010048 628345 543914 534358 364182
832427141835223936 628669 543974 534486 364242
832427141853437824 629105 544186 534656 364270
832427141871651712 629438 544357 534755 364219
832427141889865600 629671 544540 534941 364211
832427141908079488 629938 544693 534984 364229
832427141926293248 630145 544802 535062 364287
832427141944507136 630274 544772 535102 364239
832427141962721024 630487 544930 535175 364204
832427141980934912 630562 544981 535221 364237
832427141999148800 630487 544917 535245 364255
832427142017362560 630478 544954 535175 364306
832427142035576448 630416 544971 535111 364231
832427142053790336 630559 545066 535189 364199
832427142072004224 630866 545166 535267 364276
832427142090218112 631060 545287 535383 364250
832427142108432000 631324 545420 535526 364238
832427142126645822 631716 545542 535714 364315
832427142144859648 631938 545779 535754 364207
832427142163073536 632390 545923 535890 364296
832427142181287296 632737 546080 536015 364210
832427142199501184 632653 546042 536029 364171
832427142217715072 632492 545973 535930 364227
832427142235928832 632142 545772 535784 364223
832427142254142720 631716 545590 535660 364222
832427142272356608 631262 545309 535479 364288
832427142290570368 630671 545013 535282 364264
832427142308784256 630084 544662 535033 364246
832427142326998144 629475 544408 534851 364273
832427142345211904 629048 544197 534705 364299
832427142363425792 628605 543983 534514 364340
832427142381639552 628236 543822 534374 364265
832427142399853440 627892 543617 534245 364264
832427142418067328 627801 543619 534198 364248
832427142436281088 627777 543584 534203 364258
832427142454494976 627942 543680 534309 364227
832427142472708864 628186 543846 534384 364231
832427142490922624 628592 543965 534496 364245
832427142509136512 628953 544168 534600 364254
832427142527350400 629254 544316 534685 364306
832427142545564160 629666 544519 534846 364244
832427142563778048 629967 544660 535009 364223
832427142581991936 630130 544716 534996 364207
832427142600205696 630204 544784 535089 364246
832427142618419584 630222 544779 535122 364252
832427142636633472 630213 544805 535081 364179
832427142654847232 630335 544893 535116 364207
832427142673061120 630405 544914 535133 364250
832427142691275008 630461 544947 535179 364254
832427142709488768 630557 545005 535244 364235
832427142727702656 630699 545064 535296 364223
832427142745916544 631032 545210 535438 364216
832427142764130304 631297 545359 535493 364226
832427142782344192 631488 545494 535597 364228
832427142800558032 631709 545503 535639 364253
832427142818771968 631958 545686 535684 364276
832427142836985856 632342 545857 535865 364243
832427142855199616 632680 546056 536004 364258
832427142873413504 632661 545995 535998 364235
832427142891627392 632443 545958 535951 364264
832427142909841152 632074 545784 535782 364293
832427142928055040 631598 545512 535627 364245
832427142946268928 631176 545291 535474 364274
832427142964482688 630510 544944 535183 364250
832427142982696576 629812 544610 534968 364209
832427143000910464 629200 544352 534715 364289
832427143019124224 628588 544022 534512 364229
832427143037338112 628216 543817 534365 364269
832427143055551872 628000 543662 534280 364257
832427143073765760 627949 543616 534285 364272
832427143091979648 627852 543580 534205 364224
832427143110193408 627927 543597 534253 364160
832427143128407296 628183 543683 534305 364199
832427143146621184 628508 543933 534433 364269
832427143164834944 628813 544092 534599 364229
832427143183048832 629156 544252 534721 364307
832427143201262720 629350 544368 534807 364284
832427143219476480 629544 544396 534820 364277
832427143237690368 629870 544593 534952 364244
832427143255904256 630094 544737 535085 364247
832427143274118016 630227 544786 535105 364217
832427143292331904 630368 544925 535146 364199
832427143310545792 630392 544940 535142 364231
832427143328759552 630507 544968 535182 364267
832427143346973440 630593 545039 535243 364282
832427143365187328 630681 545075 535244 364238
832427143383401088 630695 545099 535276 364186
832427143401614976 630766 545136 535337 364278
832427143419828736 630905 545278 535361 364228
832427143438042624 631164 545380 535503 364226
832427143456256512 631556 545481 535599 364188
832427143474470236 631924 545764 535770 364166
832427143492684160 632308 545858 535876 364238
832427143510898048 632624 546066 535954 364229
832427143529111808 632825 546134 536053 364226
832427143547325696 632762 546099 535981 364204
832427143565539584 632481 545978 535994 364227
832427143583753344 631948 545734 535756 364234
832427143601967232 631374 545421 535564 364256
832427143620181120 630711 545018 535271 364238
832427143638394880 630190 544790 535092 364279
832427143656608768 629569 544488 534831 364231
832427143674822656 629031 544184 534636 364280
832427143693036416 628587 544008 534521 364297
832427143711250304 628300 543825 534358 364279
832427143729464064 628090 543709 534297 364263
832427143747677952 627974 543659 534305 364255
832427143765891840 627924 543648 534251 364281
832427143784105600 628008 543696 534269 364247
832427143802319488 628173 543740 534297 364254
832427143820533376 628478 543908 534409 364204
832427143838747136 628782 544082 534507 364263
832427143856961024 629185 544322 534683 364236
832427143875174912 629479 544470 534833 364263
832427143893388672 629776 544606 534955 364244
832427143911602560 630045 544738 535094 364261
832427143929816448 630267 544900 535136 364218
832427143948030208 630332 544861 535104 364231
832427143966244096 630385 544917 535163 364270
832427143984457984 630359 545001 535141 364267
832427144002671744 630264 544874 535154 364274
832427144020885632 630324 544965 535167 364244
832427144039099520 630499 544954 535229 364196
832427144057313280 630716 545066 535316 364177
832427144075527168 630961 545212 535382 364227
832427144093741056 631164 545315 535431 364244
832427144111954816 631548 545514 535618 364282
832427144130168704 631813 545626 535711 364262
832427144148382446 632148 545844 535890 364256
832427144166596736 632378 545970 535960 364240
832427144184811008 632640 546051 535999 364231
832427144203025280 632602 546028 536018 364234
832427144221239424 632432 545915 535982 364262
832427144239453696 632155 545799 535769 364225
832427144257667968 631711 545569 535683 364246
832427144275882240 631200 545302 535451 364231
832427144294096384 630649 545006 535237 364255
832427144312310656 630049 544676 535034 364284
832427144330524928 629408 544389 534827 364259
832427144348739200 628868 544129 534583 364221
832427144366953472 628411 543886 534480 364264
832427144385167616 628037 543666 534281 364194
832427144403381888 627747 543517 534144 364186
832427144421596160 627748 543569 534153 364248
832427144439810432 627893 543667 534236 364248
832427144458024704 628091 543709 534297 364251
832427144476238848 628412 543898 534436 364223
832427144494453120 628784 543981 534535 364259
832427144512667392 629105 544239 534662 364269
832427144530881664 629385 544443 534809 364245
832427144549095808 629612 544547 534896 364285
832427144567310080 629892 544571 534961 364271
832427144585524352 629970 544671 534955 364225
832427144603738624 630132 544788 535028 364224
832427144621952896 630263 544859 535057 364240
832427144640167040 630324 544947 535112 364226
832427144658381312 630432 544938 535137 364263
832427144676595584 630457 544946 535230 364272
832427144694809856 630539 544976 535158 364229
832427144713024128 630695 545067 535285 364264
832427144731238272 630824 545147 535344 364212
832427144749452544 631066 545286 535481 364253
832427144767666816 631264 545329 535508 364236
832427144785881088 631422 545416 535555 364281
832427144804095246 631797 545576 535703 364307
832427144822307328 632162 545792 535887 364261
832427144840519424 632487 545928 535960 364200
832427144858731392 632702 546129 536065 364234
832427144876943488 632632 546077 536048 364229
832427144895155584 632453 545951 535950 364241
832427144913367552 632112 545797 535855 364242
832427144931579648 631587 545511 535675 364276
832427144949791744 630982 545229 535425 364236
832427144968003712 630286 544846 535131 364291
832427144986215808 629578 544461 534852 364253
832427145004427904 628992 544178 534677 364263
832427145022639872 628586 543928 534453 364206
832427145040851968 628283 543708 534359 364282
832427145059064064 628040 543621 534244 364160
832427145077276032 627938 543575 534170 364211
832427145095488128 628007 543665 534217 364288
832427145113700224 628081 543643 534258 364221
832427145131912192 628235 543770 534313 364258
832427145150124288 628501 543931 534420 364258
832427145168336384 628719 544059 534504 364264
832427145186548352 629021 544171 534620 364279
832427145204760448 629299 544364 534718 364239
832427145222972544 629630 544536 534876 364288
832427145241184512 629978 544673 534983 364256
832427145259396608 630228 544815 535049 364248
832427145277608704 630313 544831 535111 364189
832427145295820672 630453 544914 535182 364263
832427145314032768 630404 544949 535188 364227
832427145332244736 630459 545011 535237 364250
832427145350456832 630405 544982 535208 364267
832427145368668928 630479 544949 535238 364320
832427145386880896 630565 544989 535241 364267
832427145405092992 630797 545072 535313 364296
832427145423305088 631057 545193 535408 364298
832427145441517084 631351 545446 535528 364289
832427145459728768 631625 545586 535616 364267
832427145477940480 631953 545729 535765 364258
832427145496152192 632316 545905 535871 364211
832427145514364032 632643 546083 535989 364244
832427145532575744 632690 546125 536036 364175
832427145550787456 632550 546085 535994 364248
832427145568999168 632120 545882 535825 364231
832427145587210880 631730 545648 535667 364272
832427145605422720 631151 545312 535468 364243
832427145623634432 630645 545089 535290 364238
832427145641846144 630037 544761 535005 364239
832427145660057856 629463 544413 534827 364270
832427145678269568 628950 544196 534620 364277
832427145696481408 628590 543954 534489 364276
832427145714693120 628209 543819 534370 364261
832427145732904832 627912 543654 534182 364272
832427145751116544 627859 543515 534218 364246
832427145769328256 627761 543521 534192 364258
832427145787540096 627895 543546 534198 364244
832427145805751808 628140 543750 534291 364250
832427145823963520 628519 543964 534482 364241
832427145842175232 628891 544147 534634 364272
832427145860386944 629304 544324 534804 364305
832427145878598656 629687 544533 534945 364230
832427145896810496 629937 544623 535024 364229
832427145915022208 630108 544744 535069 364235
832427145933233920 630206 544854 535107 364296
832427145951445632 630300 544868 535102 364230
832427145969657344 630209 544800 535097 364169
832427145987869184 630342 544915 535127 364271
832427146006080896 630411 544930 535203 364208
832427146024292608 630459 544935 535260 364262
832427146042504320 630569 545034 535301 364255
832427146060716032 630727 545088 535265 364296
832427146078927872 631073 545235 535444 364229
832427146097139584 631281 545358 535476 364299
832427146115351296 631518 545464 535572 364241
832427146133563090 631726 545636 535634 364227
832427146151776256 632050 545803 535767 364286
832427146169989376 632256 545877 535801 364234
832427146188202496 632612 546006 536001 364269
832427146206415744 632643 546056 536007 364272
832427146224628864 632495 545971 536008 364296
832427146242841984 632187 545807 535881 364263
832427146261055104 631702 545562 535681 364265
832427146279268224 631155 545311 535506 364260
832427146297481344 630502 545057 535258 364271
832427146315694592 629850 544663 534991 364313
832427146333907712 629241 544299 534677 364260
832427146352120832 628678 544030 534480 364251
832427146370333952 628268 543861 534354 364286
832427146388547072 627973 543636 534188 364301
832427146406760192 627842 543594 534182 364238
832427146424973440 627869 543602 534214 364252
832427146443186560 627974 543640 534264 364234
832427146461399680 628105 543738 534359 364250
832427146479612800 628456 543873 534511 364247
832427146497825920 628745 544024 534600 364254
832427146516039168 629037 544189 534680 364224
832427146534252288 629271 544312 534765 364222
832427146552465408 629499 544476 534854 364268
832427146570678528 629788 544628 534945 364242
832427146588891648 630079 544749 535069 364247
832427146607104768 630250 544794 535101 364282
832427146625318016 630350 544904 535186 364272
832427146643531136 630428 544951 535241 364281
832427146661744256 630569 544933 535194 364231
832427146679957376 630661 544962 535227 364241
832427146698170496 630627 545080 535316 364310
832427146716383616 630660 545102 535297 364251
832427146734596864 630780 545109 535325 364264
832427146752809984 630910 545222 535391 364225
832427146771023104 631195 545328 535504 364243
832427146789236224 631483 545430 535545 364308
832427146807449360 631884 545628 535734 364304
832427146825662464 632241 545839 535838 364237
832427146843875584 632669 546098 536048 364290
832427146862088704 632880 546166 536140 364220
832427146880301952 632775 546109 536080 364240
832427146898515072 632459 545917 535922 364202
832427146916728192 631986 545742 535747 364216
832427146934941312 631377 545416 535507 364240
832427146953154432 630669 545022 535226 364285
832427146971367552 630085 544829 535033 364267
832427146989580800 629494 544456 534833 364253
832427147007793920 628977 544188 534624 364229
832427147026007040 628568 543955 534425 364268
832427147044220160 628288 543777 534373 364229
832427147062433280 628133 543694 534338 364230
832427147080646400 628021 543732 534319 364280
832427147098859648 627888 543616 534323 364240
832427147117072768 628021 543714 534331 364258
832427147135285888 628100 543743 534340 364273
832427147153499008 628421 543862 534392 364212
832427147171712128 628833 544098 534551 364235
832427147189925248 629077 544290 534656 364245
832427147208138496 629428 544462 534822 364329
832427147226351616 629783 544595 534939 364292
832427147244564736 630041 544723 535098 364305
832427147262777856 630264 544824 535141 364187
832427147280990976 630345 544936 535162 364234
832427147299204224 630404 544973 535203 364220
832427147317417344 630370 544921 535142 364170
832427147335630464 630306 544978 535129 364179
832427147353843584 630347 544893 535161 364214
832427147372056704 630501 544952 535185 364226
832427147390269824 630674 545061 535316 364278
832427147408483072 630932 545190 535354 364239
832427147426696192 631224 545351 535467 364222
832427147444909312 631436 545446 535567 364223
832427147463122432 631846 545737 535757 364291
832427147481335622 632155 545881 535883 364258
832427147499548800 632452 545972 535920 364262
832427147517761920 632611 546109 536006 364211
832427147535975040 632646 546141 536080 364260
832427147554188288 632524 546085 535982 364270
832427147572401408 632203 545904 535886 364242
832427147590614528 631795 545682 535713 364254
832427147608827648 631193 545313 535477 364227
832427147627040768 630549 544998 535220 364242
832427147645253888 630034 544694 535011 364204
832427147663467136 629525 544452 534867 364307
832427147681680256 628914 544127 534615 364233
832427147699893376 628375 543943 534463 364253
832427147718106496 627942 543738 534320 364244
832427147736319616 627797 543528 534235 364269
832427147754532736 627780 543530 534221 364226
832427147772745984 627854 543600 534221 364252
832427147790959104 628028 543761 534368 364295
832427147809172224 628277 543812 534378 364288
832427147827385344 628671 543997 534492 364248
832427147845598464 629135 544247 534695 364253
832427147863811712 629461 544408 534833 364326
832427147882024832 629680 544501 534865 364265
832427147900237952 629837 544653 534989 364261
832427147918451072 629988 544721 535041 364217
832427147936664192 630084 544784 535114 364255
832427147954877312 630246 544877 535115 364256
832427147973090560 630380 544943 535176 364226
832427147991303680 630431 544899 535129 364227
832427148009516800 630460 544969 535141 364236
832427148027729920 630547 544943 535178 364227
832427148045943040 630755 545116 535261 364223
832427148064156160 630966 545139 535337 364262
832427148082369408 631056 545257 535479 364219
832427148100582528 631253 545340 535494 364240
832427148118795648 631420 545444 535550 364221
832427148137008750 631781 545621 535704 364240
832427148155221888 632148 545834 535816 364258
832427148173435008 632534 546007 535981 364209
832427148191648128 632709 546109 536013 364240
832427148209861376 632662 546088 536014 364239
832427148228074496 632491 545983 535990 364245
832427148246287616 632184 545835 535845 364273
832427148264500736 631630 545581 535660 364246
832427148282713856 630937 545140 535355 364224
832427148300926976 630259 544883 535135 364263
832427148319140224 629604 544511 534855 364253
832427148337353344 628958 544226 534653 364233
832427148355566464 628588 543998 534535 364248
832427148373779584 628355 543834 534420 364240
832427148391992704 628088 543751 534343 364235
832427148410205824 627909 543648 534215 364264
832427148428419072 627936 543665 534292 364251
832427148446632192 628077 543702 534324 364269
832427148464845312 628281 543817 534406 364224
832427148483058432 628480 543983 534505 364277
832427148501271552 628728 544025 534544 364217
832427148519484800 629023 544192 534664 364217
832427148537697920 629439 544443 534841 364287
832427148555911040 629740 544551 534920 364236
832427148574124160 630006 544706 535007 364221
832427148592337280 630211 544738 535011 364175
832427148610550400 630359 544828 535098 364244
832427148628763648 630488 544891 535202 364175
832427148646976768 630512 544944 535180 364197
832427148665189888 630542 544961 535255 364188
832427148683403008 630562 544979 535217 364224
832427148701616128 630436 544954 535175 364201
832427148719829248 630552 545033 535205 364248
832427148738042496 630791 545131 535253 364271
832427148756255616 631064 545251 535404 364225
832427148774468736 631404 545481 535546 364278
832427148792681878 631676 545554 535650 364218
832427148810895232 632016 545712 535759 364251
832427148829108608 632417 546025 535862 364222
832427148847321856 632740 546170 536059 364231
832427148865535232 632773 546150 536035 364262
832427148883748480 632548 546095 535980 364255
832427148901961856 632233 545932 535811 364233
832427148920175104 631791 545604 535660 364275
832427148938388480 631263 545351 535473 364256
832427148956601728 630600 544998 535210 364219
832427148974815104 630102 544791 535084 364238
832427148993028352 629516 544432 534813 364196
832427149011241728 628919 544143 534606 364268
832427149029454976 628523 543978 534466 364250
832427149047668352 628296 543841 534405 364278
832427149065881728 628076 543716 534307 364237
832427149084094976 627882 543605 534239 364256
832427149102308352 627794 543601 534233 364238
832427149120521600 627962 543710 534261 364233
832427149138734976 628277 543869 534344 364297
832427149156948224 628549 544048 534442 364242
832427149175161600 628958 544194 534624 364247
832427149193374848 629284 544358 534808 364269
832427149211588224 629627 544476 534926 364338
832427149229801472 629911 544693 535000 364272
832427149248014848 630161 544778 535097 364236
832427149266228096 630323 544892 535145 364239
832427149284441472 630377 544919 535170 364253
832427149302654848 630294 544928 535105 364255
832427149320868096 630393 544933 535171 364267
832427149339081472 630449 544916 535242 364240
832427149357294720 630534 545010 535255 364248
832427149375508096 630649 545044 535299 364276
832427149393721344 630797 545181 535384 364277
832427149411934720 631022 545247 535427 364214
832427149430147968 631256 545345 535520 364150
832427149448361728 631547 545469 535630 364219
832427149466575488 631878 545675 535720 364230
832427149484789376 632069 545751 535779 364227
832427149503003136 632317 545826 535909 364230
832427149521217024 632578 546004 535982 364242
832427149539430784 632705 546044 536020 364284
832427149557644672 632512 545968 536024 364279
832427149575858432 632149 545839 535828 364227
832427149594072320 631688 545533 535660 364245
832427149612286080 631200 545240 535480 364251
832427149630499968 630590 544960 535245 364219
832427149648713728 630036 544745 535042 364270
832427149666927616 629319 544342 534751 364255
832427149685141376 628674 544063 534545 364302
832427149703355264 628233 543802 534389 364271
832427149721569024 628029 543696 534339 364318
832427149739782912 627942 543608 534262 364315
832427149757996672 627871 543622 534297 364289
832427149776210560 627938 543616 534261 364313
832427149794424320 628106 543740 534300 364267
832427149812638080 628517 543957 534470 364303
832427149830851968 628904 544161 534639 364359
832427149849065728 629174 544282 534773 364289
832427149867279616 629464 544388 534861 364260
832427149885493376 629587 544462 534850 364214
832427149903707264 629894 544683 535015 364260
832427149921921024 630138 544803 535095 364294
832427149940134912 630306 544871 535111 364274
832427149958348672 630437 544960 535187 364259
832427149976562560 630491 544995 535258 364358
832427149994776320 630532 544957 535260 364295
832427150012990208 630545 545049 535313 364269
832427150031203968 630596 545040 535273 364267
832427150049417856 630626 545108 535322 364314
832427150067631616 630783 545169 535339 364282
832427150085845510 630915 545246 535399 364275
832427150104058624 631155 545327 535501 364253
832427150122271744 631509 545502 535581 364299
832427150140484864 631826 545656 535713 364265
832427150158698112 632227 545856 535930 364242
832427150176911232 632633 546056 536038 364257
832427150195124352 632829 546099 536087 364281
832427150213337472 632741 546153 536069 364209
832427150231550592 632516 545988 535994 364239
832427150249763712 632009 545762 535835 364254
832427150267976960 631359 545451 535567 364230
832427150286190080 630692 545047 535311 364298
832427150304403200 630126 544761 535102 364259
832427150322616320 629530 544408 534824 364194
832427150340829440 629063 544154 534677 364292
832427150359042560 628639 543990 534489 364294
832427150377255808 628324 543810 534394 364285
832427150395468928 628133 543710 534339 364265
832427150413682048 628037 543680 534262 364225
832427150431895168 627945 543625 534235 364238
832427150450108288 628021 543738 534279 364184
832427150468321408 628119 543777 534318 364221
832427150486534656 628338 543869 534390 364194
832427150504747776 628760 544023 534537 364226
832427150522960896 629102 544260 534680 364252
832427150541174016 629487 544473 534807 364289
832427150559387136 629778 544600 534909 364239
832427150577600384 630047 544703 535006 364252
832427150595813504 630336 544854 535141 364307
832427150614026624 630400 544970 535193 364271
832427150632239744 630462 544952 535219 364257
832427150650452864 630416 544897 535146 364258
832427150668665984 630395 544942 535197 364235
832427150686879232 630414 544887 535154 364240
832427150705092352 630538 544951 535182 364295
832427150723305472 630683 545000 535183 364248
832427150741518592 630986 545170 535383 364255
832427150759731772 631228 545345 535477 364251
832427150777944832 631434 545476 535589 364277
832427150796157952 631770 545627 535679 364310
832427150814371072 632083 545815 535825 364281
832427150832584320 632355 545956 535998 364296
832427150850797440 632622 546024 536059 364223
832427150869010560 632568 546044 536042 364217
832427150887223680 632457 545969 535982 364260
832427150905436800 632185 545865 535889 364278
832427150923649920 631833 545637 535718 364253
832427150941863168 631232 545366 535562 364265
832427150960076288 630665 545010 535282 364195
832427150978289408 630036 544725 535049 364219
832427150996502528 629475 544409 534796 364222
832427151014715648 628911 544152 534556 364209
832427151032928768 628442 543839 534358 364213
832427151051142016 628048 543657 534304 364204
832427151069355136 627803 543560 534144 364260
832427151087568256 627770 543539 534138 364241
832427151105781376 627791 543536 534143 364207
832427151123994496 627999 543671 534257 364235
832427151142207744 628336 543824 534381 364195
832427151160420864 628719 544040 534523 364227
832427151178633984 629066 544203 534693 364179
832427151196847104 629389 544394 534803 364219
832427151215060224 629651 544460 534855 364237
832427151233273344 629909 544603 534968 364247
832427151251486592 630027 544717 535021 364253
832427151269699712 630081 544703 535012 364212
832427151287912832 630290 544797 535122 364233
832427151306125952 630375 544832 535170 364289
832427151324339072 630460 544867 535166 364213
832427151342552192 630547 544888 535182 364214
832427151360765440 630601 544961 535254 364237
832427151378978560 630742 545071 535273 364234
832427151397191680 630898 545144 535422 364259
832427151415404800 631054 545269 535462 364217
832427151433618042 631279 545368 535504 364195
832427151451831552 631419 545459 535555 364177
832427151470045056 631729 545586 535673 364261
832427151488258688 632112 545830 535853 364250
832427151506472192 632523 545979 535950 364262
832427151524685824 632753 546122 536107 364261
832427151542899328 632664 546124 536106 364179
832427151561112960 632426 545955 535984 364230
832427151579326464 632100 545839 535843 364260
832427151597540096 631602 545584 535681 364247
832427151615753600 630913 545246 535345 364252
832427151633967232 630314 544916 535142 364284
832427151652180736 629633 544534 534887 364259
832427151670394368 629009 544186 534633 364245
832427151688607872 628587 543986 534499 364248
832427151706821504 628265 543784 534312 364236
832427151725035008 628080 543700 534255 364246
832427151743248640 627965 543680 534296 364319
832427151761462144 627914 543606 534295 364221
832427151779675776 627991 543619 534252 364213
832427151797889280 628185 543781 534315 364226
832427151816102912 628531 543884 534365 364222
832427151834316416 628821 544055 534492 364199
832427151852530048 629050 544261 534595 364236
832427151870743552 629355 544346 534726 364243
832427151888957184 629701 544510 534897 364275
832427151907170688 629968 544683 534936 364221
832427151925384320 630203 544792 535062 364251
832427151943597824 630330 544815 535115 364206
832427151961811456 630542 544913 535210 364206
832427151980024960 630551 544955 535177 364207
832427151998238592 630570 544940 535200 364179
832427152016452096 630561 545008 535220 364231
832427152034665728 630590 545048 535271 364196
832427152052879232 630581 545041 535309 364250
832427152071092864 630798 545148 535304 364240
832427152089306430 631057 545237 535409 364234
832427152107520128 631329 545353 535508 364265
832427152125733888 631650 545605 535618 364214
832427152143947776 632049 545778 535788 364263
832427152162161536 632411 545898 535929 364235
832427152180375296 632709 546062 536090 364244
832427152198589056 632774 546141 536090 364194
832427152216802944 632628 546052 536043 364197
832427152235016704 632308 545908 535875 364210
832427152253230464 631777 545631 535686 364228
832427152271444352 631223 545405 535517 364205
832427152289658112 630679 545082 535258 364244
832427152307871872 630070 544823 535074 364226
832427152326085632 629545 544416 534776 364189
832427152344299520 628965 544171 534621 364193
832427152362513280 628597 543939 534427 364211
832427152380727040 628284 543725 534321 364236
832427152398940928 628061 543657 534280 364256
832427152417154688 627874 543570 534214 364261
832427152435368448 627879 543592 534215 364184
832427152453582208 627919 543548 534237 364195
832427152471796096 628168 543692 534305 364182
832427152490009856 628504 543984 534483 364148
832427152508223616 628929 544120 534609 364220
832427152526437504 629302 544322 534725 364258
832427152544651264 629596 544455 534821 364251
832427152562865024 629937 544682 534983 364260
832427152581078784 630164 544763 535072 364260
832427152599292672 630186 544834 535063 364247
832427152617506432 630264 544927 535121 364237
832427152635720192 630239 544868 535119 364226
832427152653934080 630366 544970 535183 364233
832427152672147840 630411 544995 535167 364262
832427152690361600 630447 544969 535207 364213
832427152708575360 630574 545052 535225 364219
832427152726789304 630797 545086 535290 364229
832427152745003904 631030 545258 535362 364208
832427152763218560 631332 545379 535474 364294
832427152781433216 631514 545524 535565 364247
832427152799647872 631763 545665 535670 364233
832427152817862528 632048 545776 535745 364229
832427152836077184 632339 545948 535828 364234
832427152854291968 632568 546076 536010 364280
832427152872506624 632649 546055 536010 364214
832427152890721280 632465 545953 535960 364245
832427152908935936 632139 545740 535789 364210
832427152927150592 631699 545575 535677 364242
832427152945365248 631071 545147 535408 364208
832427152963579904 630524 545000 535183 364178
832427152981794560 629937 544615 534972 364184
832427153000009216 629311 544354 534752 364228
832427153018223872 628656 544006 534545 364225
832427153036438656 628230 543804 534363 364281
832427153054653312 628026 543681 534293 364263
832427153072867968 627861 543573 534230 364225
832427153091082624 627915 543597 534293 364259
832427153109297280 627990 543665 534308 364247
832427153127511936 628148 543786 534388 364273
832427153145726592 628555 543924 534445 364303
832427153163941248 628867 544116 534554 364263
832427153182155904 629116 544242 534677 364250
832427153200370560 629327 544340 534782 364231
832427153218585344 629562 544464 534818 364205
832427153236800000 629815 544602 534923 364216
832427153255014656 630053 544758 534968 364184
832427153273229312 630254 544812 535112 364218
832427153291443968 630376 544891 535162 364226
832427153309658624 630465 544944 535161 364247
832427153327873280 630540 545014 535262 364278
832427153346087936 630585 545006 535250 364196
832427153364302696 630592 544978 535253 364241
832427153382515840 630696 545075 535229 364205
832427153400728960 630851 545086 535316 364209
832427153418942208 631024 545246 535357 364239
832427153437155328 631235 545332 535450 364224
832427153455368576 631520 545422 535551 364221
832427153473581696 631873 545656 535740 364219
832427153491794944 632155 545803 535789 364204
832427153510008064 632589 546025 535975 364241
832427153528221312 632794 546068 536070 364197
832427153546434432 632771 546150 536100 364233
832427153564647680 632470 545997 535947 364229
832427153582860800 631986 545737 535758 364248
832427153601074048 631395 545410 535518 364264
832427153619287168 630794 545053 535298 364287
832427153637500416 630178 544739 535024 364247
832427153655713536 629589 544490 534871 364248
832427153673926784 629023 544233 534650 364231
832427153692139904 628485 543937 534508 364219
832427153710353152 628243 543798 534393 364254
832427153728566272 628129 543683 534286 364234
832427153746779520 627985 543643 534268 364207
832427153764992640 627911 543551 534234 364151
832427153783205888 627962 543681 534236 364222
832427153801419008 628119 543707 534312 364223
832427153819632128 628388 543859 534434 364220
832427153837845376 628809 544091 534564 364244
832427153856058496 629118 544213 534676 364192
832427153874271744 629429 544371 534776 364223
832427153892484864 629718 544561 534911 364248
832427153910698112 630007 544731 535006 364242
832427153928911232 630273 544865 535140 364254
832427153947124480 630472 544899 535233 364242
832427153965337600 630502 544932 535210 364247
832427153983550848 630433 544944 535157 364223
832427154001763968 630440 544921 535172 364261
832427154019977216 630379 544856 535143 364286
832427154038190336 630536 544943 535172 364254
832427154056403584 630735 545004 535260 364268
832427154074616766 630910 545112 535366 364296
832427154092827520 631169 545266 535438 364229
832427154111038336 631473 545393 535567 364258
832427154129249152 631756 545634 535681 364224
832427154147459840 632131 545830 535853 364248
832427154165670656 632370 545968 535935 364233
832427154183881472 632662 546126 536031 364296
832427154202092288 632547 546038 536037 364219
832427154220303104 632392 545900 535918 364259
832427154238513792 632174 545791 535850 364258
832427154256724608 631760 545566 535653 364278
832427154274935424 631214 545234 535452 364280
832427154293146240 630544 545041 535272 364242
832427154311357056 629995 544747 535108 364256
