TIMESTAMP PPG0 PPG1 PPG2 AMBIENT
832781690663626880 -110 -25266 -2554 -512921
832781690681808640 -78 -25280 -2475 -512945
832781690699990528 -23 -25228 -2420 -512899
832781690718172288 -29 -25243 -2395 -512901
832781690736354176 -71 -25225 -2442 -512908
832781690754535936 -51 -25240 -2432 -512885
832781690772717824 -7 -25257 -2436 -512878
832781690790899584 -25 -25219 -2471 -512859
832781690809081472 -64 -25266 -2450 -512916
832781690827263232 -78 -25278 -2417 -512893
832781690845445120 -41 -25251 -2442 -512852
832781690863626880 -6 -25270 -2445 -512912
832781690881808640 10 -25261 -2464 -512870
832781690899990528 12 -25252 -2484 -512902
832781690918172288 -47 -25238 -2481 -512916
832781690936354176 -4 -25211 -2466 -512933
832781690954535936 -38 -25243 -2440 -512894
832781690972717824 -13 -25214 -2438 -512892
832781690990899584 -40 -25282 -2545 -512945
832781691009081472 -16 -25274 -2435 -512881
832781691027263232 -48 -25320 -2495 -512906
832781691045445120 -27 -25270 -2393 -512851
832781691063626880 -13 -25268 -2427 -512863
832781691081808640 -17 -25223 -2387 -512916
832781691099990528 -49 -25270 -2477 -512903
832781691118172288 -13 -25343 -2466 -512937
832781691136354176 40 -25223 -2425 -512822
832781691154535936 37 -25253 -2386 -512845
832781691172717824 43 -25212 -2381 -512902
832781691190899584 15 -25243 -2434 -512865
832781691209081472 24 -25201 -2432 -512873
832781691227263232 14 -25244 -2443 -512871
832781691245445120 18 -25230 -2399 -512856
832781691263626880 7 -25201 -2410 -512806
832781691281808640 35 -25232 -2431 -512820
832781691299990528 20 -25236 -2379 -512882
832781691318172288 3 -25230 -2464 -512838
832781691336354176 -112 -25265 -2509 -512903
832781691354535936 3 -25264 -2521 -512942
832781691372717824 -79 -25230 -2454 -512977
832781691390899584 -18 -25278 -2485 -512933
832781691409081472 26 -25204 -2391 -512878
832781691427263232 -34 -25245 -2417 -512872
832781691445445120 -28 -25266 -2423 -512894
832781691463626880 3 -25292 -2394 -512871
832781691481808640 -14 -25284 -2404 -512895
832781691499990528 -94 -25289 -2453 -512928
832781691518172288 -64 -25268 -2437 -512944
832781691536354176 -77 -25321 -2453 -512965
832781691554535936 -56 -25306 -2438 -512882
832781691572717824 -30 -25256 -2439 -512914
832781691590899534 0 -25289 -2430 -512860
832781691609111808 -46 -25307 -2380 -512882
832781691627324032 -25 -25291 -2440 -512886
832781691645536128 28 -25244 -2417 -512918
832781691663748352 -55 -25236 -2418 -512961
832781691681960448 -105 -25273 -2457 -512939
832781691700172672 -52 -25270 -2448 -512920
832781691718384896 -90 -25240 -2468 -512921
832781691736596992 -40 -25291 -2428 -512881
832781691754809216 -40 -25232 -2386 -512888
832781691773021312 -65 -25241 -2442 -512909
832781691791233536 -56 -25287 -2395 -512890
832781691809445632 -55 -25355 -2444 -512958
832781691827657856 -42 -25262 -2366 -512895
832781691845870080 -68 -25297 -2399 -512904
832781691864082176 -55 -25323 -2471 -512941
832781691882294400 22 -25241 -2374 -512906
832781691900506496 -29 -25243 -2417 -512911
832781691918718720 -94 -25289 -2454 -512938
832781691936930944 -28 -25241 -2409 -512891
832781691955143040 -38 -25228 -2482 -512911
832781691973355264 21 -25273 -2440 -512915
832781691991567360 14 -25245 -2462 -512904
832781692009779584 25 -25240 -2402 -512910
832781692027991808 -29 -25275 -2491 -512946
832781692046203904 1 -25232 -2425 -512932
832781692064416128 -84 -25239 -2450 -512872
832781692082628224 20 -25233 -2453 -512895
832781692100840448 -12 -25285 -2473 -512867
832781692119052544 -27 -25209 -2491 -512901
832781692137264768 -42 -25232 -2442 -512912
832781692155476992 -7 -25266 -2468 -512911
832781692173689088 -48 -25245 -2490 -512894
832781692191901312 10 -25278 -2517 -512888
832781692210113408 -43 -25262 -2466 -512874
832781692228325632 8 -25228 -2432 -512910
832781692246537856 -14 -25244 -2466 -512891
832781692264749952 17 -25252 -2439 -512903
832781692282962176 -9 -25240 -2461 -512940
832781692301174272 11 -25302 -2454 -512935
832781692319386496 5299 -20017 -2499 -512907
832781692337598720 7731 -17590 -2456 -512894
832781692355810816 8834 -16459 -2490 -512851
832781692374023040 9241 -16047 -2412 -512915
832781692392235074 9346 -15953 -2500 -512892
832781692410449024 9268 -16032 -2483 -512844
832781692428662912 9011 -16214 -2434 -512804
832781692446876800 8741 -16502 -2374 -512852
832781692465090688 8356 -16871 -2381 -512854
832781692483304448 7917 -17302 -2392 -512913
832781692501518336 7587 -17625 -2417 -512938
832781692519732224 7276 -18013 -2406 -512910
832781692537946112 6997 -18341 -2408 -512931
832781692556160000 6776 -18492 -2429 -512926
832781692574373888 6644 -18647 -2404 -512930
832781692592587776 6637 -18678 -2402 -512835
832781692610801536 6697 -18669 -2379 -512865
832781692629015424 6745 -18529 -2413 -512852
832781692647229312 6876 -18384 -2415 -512874
832781692665443200 7053 -18180 -2389 -512895
832781692683657088 7306 -18007 -2382 -512887
832781692701870976 7512 -17785 -2415 -512872
832781692720084736 7680 -17577 -2395 -512837
832781692738298624 7828 -17449 -2386 -512862
832781692756512512 7919 -17314 -2359 -512841
832781692774726400 7964 -17283 -2495 -512918
832781692792940288 8066 -17246 -2388 -512904
832781692811154176 8083 -17242 -2426 -512877
832781692829368064 8049 -17165 -2355 -512860
832781692847581824 8089 -17141 -2363 -512853
832781692865795712 8044 -17123 -2433 -512865
832781692884009600 8181 -17010 -2409 -512808
832781692902223488 8318 -16960 -2398 -512837
832781692920437376 8471 -16891 -2447 -512874
832781692938651264 8718 -16621 -2398 -512854
832781692956865152 8890 -16440 -2449 -512899
832781692975078912 9254 -15994 -2419 -512877
832781692993292800 9398 -15884 -2419 -512943
832781693011506688 9484 -15762 -2434 -512919
832781693029720576 9602 -15657 -2392 -512893
832781693047934464 9637 -15683 -2383 -512868
832781693066148352 9503 -15759 -2408 -512854
832781693084362240 9250 -16004 -2440 -512852
832781693102576000 8991 -16293 -2439 -512884
832781693120789888 8638 -16587 -2427 -512831
832781693139003776 8290 -16994 -2451 -512826
832781693157217572 7885 -17410 -2372 -512793
832781693175429888 7406 -17728 -2435 -512876
832781693193642240 7172 -18061 -2359 -512857
832781693211854720 6888 -18318 -2382 -512836
832781693230067072 6686 -18534 -2417 -512868
832781693248279552 6594 -18677 -2450 -512874
832781693266491904 6607 -18626 -2418 -512879
832781693284704384 6667 -18596 -2411 -512914
832781693302916736 6865 -18407 -2401 -512859
832781693321129216 6957 -18355 -2449 -512915
832781693339341568 7188 -18119 -2402 -512865
832781693357554048 7315 -17835 -2406 -512870
832781693375766400 7547 -17640 -2453 -512853
832781693393978880 7750 -17516 -2461 -512841
832781693412191232 7811 -17415 -2456 -512886
832781693430403712 7961 -17213 -2439 -512882
832781693448616064 7979 -17238 -2431 -512877
832781693466828544 8064 -17208 -2366 -512853
832781693485040896 8080 -17147 -2384 -512853
832781693503253376 8096 -17175 -2427 -512874
832781693521465728 8118 -17117 -2384 -512865
832781693539678208 8132 -17088 -2456 -512952
832781693557890560 8303 -16974 -2385 -512893
832781693576103040 8417 -16835 -2394 -512840
832781693594315392 8569 -16649 -2324 -512841
832781693612527872 8774 -16458 -2351 -512838
832781693630740224 9015 -16297 -2440 -512813
832781693648952704 9223 -16078 -2440 -512884
832781693667165056 9407 -15882 -2389 -512918
832781693685377536 9547 -15744 -2461 -512889
832781693703589888 9666 -15640 -2445 -512868
832781693721802368 9586 -15680 -2387 -512864
832781693740014720 9381 -15859 -2430 -512922
832781693758227200 9141 -16042 -2389 -512874
832781693776439552 8848 -16358 -2392 -512869
832781693794652032 8488 -16750 -2374 -512850
832781693812864384 8085 -17094 -2400 -512898
832781693831076864 7655 -17523 -2416 -512947
832781693849289216 7346 -17860 -2452 -512901
832781693867501696 7105 -18174 -2397 -512891
832781693885714048 6840 -18393 -2404 -512928
832781693903926528 6712 -18564 -2398 -512931
832781693922139042 6668 -18612 -2438 -512953
832781693940349952 6690 -18589 -2378 -512869
832781693958560896 6800 -18491 -2357 -512829
832781693976771840 6846 -18417 -2386 -512868
832781693994982784 7019 -18211 -2410 -512884
832781694013193856 7246 -18011 -2419 -512912
832781694031404800 7515 -17717 -2399 -512865
832781694049615744 7618 -17596 -2444 -512915
832781694067826688 7819 -17442 -2422 -512916
832781694086037632 7975 -17264 -2422 -512858
832781694104248576 8014 -17273 -2437 -512903
832781694122459520 8114 -17150 -2400 -512863
832781694140670592 8108 -17122 -2401 -512871
832781694158881536 8093 -17096 -2423 -512859
832781694177092480 8128 -17059 -2366 -512839
832781694195303424 8175 -17073 -2360 -512881
832781694213514368 8203 -17020 -2470 -512824
832781694231725312 8276 -16944 -2410 -512850
832781694249936256 8495 -16759 -2392 -512882
832781694268147328 8645 -16642 -2454 -512871
832781694286358272 8897 -16340 -2416 -512840
832781694304569216 9072 -16111 -2367 -512844
832781694322780160 9283 -15882 -2409 -512856
832781694340991104 9517 -15746 -2402 -512896
832781694359202048 9636 -15599 -2398 -512831
832781694377412992 9714 -15570 -2414 -512807
832781694395624064 9614 -15673 -2388 -512895
832781694413835008 9406 -15891 -2403 -512874
832781694432045952 9133 -16102 -2393 -512897
832781694450256896 8770 -16500 -2414 -512875
832781694468467840 8441 -16846 -2384 -512858
832781694486678784 8019 -17266 -2392 -512803
832781694504889728 7599 -17641 -2414 -512885
832781694523100800 7249 -17983 -2413 -512862
832781694541311744 6997 -18274 -2413 -512868
832781694559522688 6863 -18456 -2351 -512936
832781694577733632 6671 -18576 -2415 -512880
832781694595944576 6633 -18652 -2460 -512872
832781694614155520 6698 -18627 -2413 -512881
832781694632366464 6770 -18513 -2437 -512872
832781694650577536 6972 -18294 -2400 -512871
832781694668788480 7171 -18097 -2421 -512873
832781694686999468 7372 -17854 -2388 -512870
832781694705211520 7555 -17656 -2461 -512846
832781694723423616 7755 -17518 -2439 -512881
832781694741635712 7925 -17355 -2392 -512907
832781694759847936 7987 -17204 -2375 -512856
832781694778060032 8062 -17145 -2375 -512874
832781694796272128 8142 -17099 -2397 -512867
832781694814484224 8101 -17052 -2361 -512908
832781694832696448 8130 -17109 -2383 -512819
832781694850908544 8133 -17065 -2385 -512852
832781694869120640 8208 -16987 -2413 -512888
832781694887332736 8299 -16916 -2332 -512851
832781694905544960 8508 -16780 -2384 -512847
832781694923757056 8561 -16645 -2429 -512864
832781694941969152 8757 -16444 -2436 -512840
832781694960181248 8974 -16246 -2425 -512912
832781694978393344 9282 -16030 -2417 -512850
832781694996605568 9425 -15815 -2436 -512870
832781695014817664 9611 -15655 -2421 -512853
832781695033029760 9698 -15485 -2336 -512854
832781695051241856 9641 -15585 -2366 -512881
832781695069454080 9443 -15742 -2444 -512878
832781695087666176 9272 -15928 -2361 -512799
832781695105878272 9003 -16260 -2437 -512867
832781695124090368 8613 -16589 -2461 -512886
832781695142302464 8191 -16972 -2449 -512891
832781695160514688 7835 -17423 -2450 -512898
832781695178726784 7512 -17730 -2414 -512885
832781695196938880 7164 -18043 -2405 -512884
832781695215150976 6881 -18324 -2446 -512919
832781695233363200 6752 -18479 -2392 -512891
832781695251575296 6659 -18620 -2368 -512874
832781695269787392 6705 -18562 -2419 -512894
832781695287999488 6731 -18447 -2422 -512892
832781695306211712 6945 -18322 -2446 -512806
832781695324423808 7001 -18233 -2498 -512872
832781695342635904 7257 -17975 -2431 -512836
832781695360848000 7500 -17777 -2402 -512930
832781695379060096 7685 -17526 -2411 -512894
832781695397272320 7794 -17426 -2393 -512865
832781695415484416 8016 -17282 -2355 -512863
832781695433696512 8024 -17147 -2376 -512886
832781695451908722 8105 -17124 -2464 -512902
832781695470119552 8125 -17144 -2422 -512825
832781695488330368 8147 -17140 -2381 -512834
832781695506541184 8163 -17088 -2334 -512825
832781695524752000 8182 -17040 -2366 -512856
832781695542962816 8234 -16984 -2439 -512885
832781695561173632 8369 -16874 -2389 -512833
832781695579384448 8482 -16762 -2353 -512842
832781695597595264 8616 -16526 -2375 -512885
832781695615806080 8923 -16361 -2394 -512855
832781695634016896 9104 -16127 -2395 -512882
832781695652227712 9329 -15898 -2348 -512890
832781695670438528 9527 -15690 -2387 -512887
832781695688649344 9670 -15599 -2403 -512911
832781695706860160 9686 -15540 -2375 -512851
832781695725070976 9626 -15583 -2410 -512778
832781695743281792 9507 -15752 -2401 -512814
832781695761492608 9254 -16017 -2376 -512847
832781695779703424 8868 -16387 -2388 -512845
832781695797914240 8500 -16767 -2425 -512871
832781695816125056 8088 -17152 -2403 -512908
832781695834335872 7753 -17496 -2423 -512873
832781695852546688 7382 -17946 -2464 -512930
832781695870757504 7069 -18155 -2335 -512888
832781695888968320 6871 -18367 -2367 -512902
832781695907179136 6770 -18532 -2447 -512928
832781695925389952 6624 -18550 -2412 -512868
832781695943600768 6666 -18519 -2416 -512902
832781695961811584 6767 -18453 -2432 -512886
832781695980022400 6915 -18315 -2401 -512906
832781695998233216 7215 -18013 -2413 -512940
832781696016444032 7414 -17797 -2301 -512797
832781696034654848 7588 -17674 -2352 -512879
832781696052865664 7790 -17489 -2438 -512884
832781696071076480 7913 -17319 -2343 -512920
832781696089287296 8032 -17205 -2383 -512856
832781696107498112 8107 -17122 -2434 -512846
832781696125708928 8079 -17109 -2410 -512898
832781696143919744 8131 -17094 -2358 -512856
832781696162130560 8160 -17086 -2377 -512816
832781696180341376 8123 -17079 -2442 -512873
832781696198552192 8156 -17056 -2419 -512863
832781696216763044 8232 -17018 -2422 -512895
832781696234973824 8386 -16838 -2404 -512877
832781696253184640 8500 -16725 -2436 -512896
832781696271395456 8740 -16472 -2460 -512850
832781696289606272 8958 -16310 -2405 -512871
832781696307817088 9199 -16075 -2443 -512887
832781696326027904 9402 -15862 -2401 -512901
832781696344238720 9593 -15681 -2394 -512824
832781696362449536 9768 -15519 -2396 -512889
832781696380660352 9691 -15640 -2469 -512903
832781696398871168 9638 -15675 -2436 -512871
832781696417081984 9341 -15908 -2456 -512855
832781696435292800 9010 -16187 -2410 -512859
832781696453503616 8738 -16505 -2393 -512872
832781696471714432 8372 -16878 -2381 -512841
832781696489925248 7941 -17328 -2330 -512852
832781696508136064 7529 -17716 -2394 -512874
832781696526346880 7203 -18021 -2371 -512901
832781696544557696 6959 -18261 -2342 -512884
832781696562768512 6790 -18482 -2426 -512897
832781696580979328 6723 -18510 -2365 -512880
832781696599190144 6626 -18567 -2434 -512892
832781696617400960 6713 -18477 -2404 -512889
832781696635611776 6821 -18387 -2383 -512865
832781696653822592 7031 -18233 -2400 -512856
832781696672033408 7166 -18053 -2423 -512880
832781696690244224 7445 -17810 -2359 -512835
832781696708455040 7653 -17580 -2423 -512877
832781696726665856 7803 -17454 -2402 -512855
832781696744876672 8005 -17290 -2389 -512852
832781696763087488 8038 -17231 -2403 -512923
832781696781298304 8163 -17152 -2418 -512861
832781696799509120 8179 -17110 -2448 -512882
832781696817719936 8186 -17021 -2416 -512876
832781696835930752 8150 -17096 -2430 -512956
832781696854141568 8149 -17096 -2405 -512899
832781696872352384 8215 -17038 -2456 -512912
832781696890563200 8349 -16909 -2379 -512918
832781696908774016 8428 -16804 -2343 -512889
832781696926984832 8671 -16596 -2357 -512844
832781696945195648 8880 -16383 -2404 -512870
832781696963406464 9121 -16205 -2464 -512852
832781696981617366 9328 -15970 -2450 -512890
832781696999828608 9499 -15795 -2374 -512899
832781697018039808 9767 -15446 -2388 -512902
832781697036251008 9763 -15454 -2379 -512875
832781697054462208 9631 -15531 -2411 -512891
832781697072673280 9454 -15680 -2432 -512926
832781697090884480 9253 -15983 -2418 -512880
832781697109095680 8865 -16348 -2430 -512930
832781697127306880 8549 -16699 -2421 -512840
832781697145518080 8182 -17053 -2467 -512791
832781697163729280 7765 -17445 -2473 -512870
832781697181940352 7433 -17816 -2420 -512855
832781697200151552 7187 -18075 -2388 -512838
832781697218362752 6867 -18342 -2425 -512927
832781697236573952 6766 -18485 -2358 -512861
832781697254785152 6646 -18567 -2379 -512920
832781697272996352 6689 -18537 -2357 -512886
832781697291207552 6766 -18488 -2348 -512862
832781697309418624 6975 -18304 -2366 -512874
832781697327629824 7139 -18118 -2365 -512857
832781697345841024 7371 -17892 -2351 -512845
832781697364052224 7555 -17691 -2433 -512864
832781697382263424 7714 -17488 -2358 -512885
832781697400474624 7888 -17319 -2353 -512877
832781697418685824 8008 -17193 -2398 -512893
832781697436896896 8146 -17114 -2368 -512813
832781697455108096 8217 -16977 -2359 -512789
832781697473319296 8160 -17035 -2345 -512856
832781697491530496 8191 -17055 -2414 -512879
832781697509741696 8133 -17070 -2406 -512878
832781697527952896 8377 -16868 -2372 -512801
832781697546163968 8399 -16801 -2419 -512869
832781697564375168 8517 -16754 -2399 -512886
832781697582586368 8597 -16624 -2425 -512909
832781697600797568 8764 -16415 -2393 -512901
832781697619008768 9083 -16241 -2323 -512839
832781697637219968 9306 -16017 -2376 -512817
832781697655431168 9503 -15828 -2371 -512795
832781697673642240 9720 -15538 -2387 -512830
832781697691853440 9828 -15487 -2417 -512818
832781697710064640 9821 -15455 -2392 -512828
832781697728275840 9684 -15612 -2377 -512804
832781697746486948 9511 -15759 -2336 -512823
832781697764698496 9224 -16039 -2403 -512889
832781697782910080 8884 -16378 -2358 -512859
832781697801121792 8466 -16750 -2439 -512878
832781697819333376 8064 -17113 -2420 -512853
832781697837544960 7764 -17545 -2403 -512879
832781697855756544 7373 -17813 -2395 -512887
832781697873968256 7144 -18153 -2401 -512933
832781697892179840 6950 -18351 -2367 -512880
832781697910391424 6780 -18523 -2450 -512889
832781697928603008 6792 -18515 -2417 -512901
832781697946814720 6830 -18432 -2406 -512850
832781697965026304 7050 -18168 -2392 -512891
832781697983237888 7076 -18123 -2438 -512948
832781698001449472 7237 -17989 -2444 -512912
832781698019661184 7446 -17745 -2454 -512871
832781698037872768 7683 -17567 -2420 -512874
832781698056084352 7901 -17413 -2462 -512861
832781698074295936 8017 -17251 -2418 -512893
832781698092507648 8148 -17188 -2364 -512911
832781698110719232 8169 -17078 -2403 -512865
832781698128930816 8197 -17025 -2400 -512880
832781698147142400 8252 -16992 -2391 -512844
832781698165354112 8256 -16994 -2415 -512868
832781698183565696 8305 -16989 -2340 -512873
832781698201777280 8263 -16946 -2400 -512908
832781698219988864 8368 -16804 -2355 -512916
832781698238200576 8503 -16768 -2406 -512879
832781698256412160 8670 -16623 -2374 -512910
832781698274623744 8921 -16389 -2401 -512878
832781698292835328 9116 -16156 -2398 -512924
832781698311047040 9350 -15950 -2463 -512914
832781698329258624 9549 -15697 -2381 -512912
832781698347470208 9723 -15530 -2376 -512872
832781698365681792 9838 -15433 -2371 -512864
832781698383893504 9776 -15526 -2391 -512850
832781698402105088 9664 -15588 -2463 -512879
832781698420316672 9407 -15869 -2406 -512893
832781698438528256 9073 -16182 -2477 -512944
832781698456739968 8736 -16502 -2466 -512939
832781698474951552 8374 -16918 -2487 -512947
832781698493163136 8133 -17170 -2402 -512921
832781698511374840 7639 -17601 -2492 -512958
832781698529585792 7269 -18010 -2525 -512947
832781698547796736 7087 -18230 -2413 -512892
832781698566007552 6886 -18435 -2438 -512843
832781698584218496 6834 -18557 -2486 -512911
832781698602429312 6720 -18545 -2512 -512886
832781698620640256 6793 -18435 -2433 -512885
832781698638851072 6930 -18236 -2380 -512872
832781698657062016 7063 -18137 -2431 -512916
832781698675272960 7306 -17884 -2412 -512950
832781698693483776 7571 -17700 -2437 -512899
832781698711694720 7760 -17495 -2396 -512925
832781698729905536 7940 -17381 -2454 -512902
832781698748116480 8056 -17230 -2422 -512944
832781698766327424 8112 -17078 -2439 -512914
832781698784538240 8227 -17055 -2372 -512885
832781698802749184 8259 -17062 -2383 -512914
832781698820960000 8323 -16957 -2323 -512881
832781698839170944 8310 -17006 -2432 -512901
832781698857381760 8263 -16980 -2480 -512940
832781698875592704 8309 -16902 -2488 -512906
832781698893803648 8446 -16788 -2469 -512894
832781698912014464 8630 -16662 -2372 -512886
832781698930225408 8790 -16466 -2420 -512887
832781698948436224 8979 -16233 -2397 -512964
832781698966647168 9182 -16007 -2414 -512929
832781698984857984 9420 -15832 -2465 -512878
832781699003068928 9781 -15469 -2413 -512894
832781699021279872 9800 -15449 -2439 -512907
832781699039490688 9851 -15428 -2419 -512837
832781699057701632 9721 -15560 -2486 -512908
832781699075912448 9506 -15709 -2466 -512932
832781699094123392 9331 -15968 -2357 -512880
832781699112334208 8928 -16293 -2375 -512879
832781699130545152 8668 -16683 -2400 -512840
832781699148756096 8225 -17035 -2411 -512922
832781699166966912 7836 -17416 -2433 -512939
832781699185177856 7457 -17814 -2445 -512899
832781699203388672 7172 -18155 -2431 -512922
832781699221599616 6979 -18314 -2449 -512857
832781699239810560 6763 -18438 -2490 -512885
832781699258021376 6762 -18481 -2464 -512899
832781699276232214 6780 -18427 -2408 -512979
832781699294442496 6952 -18329 -2411 -512935
832781699312652800 7008 -18210 -2453 -512898
832781699330863104 7214 -18009 -2467 -512907
832781699349073408 7462 -17796 -2382 -512897
832781699367283712 7658 -17530 -2347 -512867
832781699385494016 7907 -17400 -2380 -512939
832781699403704320 8038 -17246 -2449 -512955
832781699421914624 8108 -17099 -2359 -512953
832781699440124928 8215 -17008 -2376 -512937
832781699458335232 8210 -17060 -2437 -512981
832781699476545536 8227 -17035 -2428 -512910
832781699494755840 8207 -17039 -2474 -512924
832781699512966144 8413 -16844 -2395 -512922
832781699531176448 8400 -16849 -2398 -512924
832781699549386752 8392 -16801 -2477 -512868
832781699567597184 8500 -16695 -2396 -512882
832781699585807488 8616 -16630 -2437 -512910
832781699604017792 8782 -16429 -2494 -512948
832781699622228096 8997 -16200 -2412 -512957
832781699640438400 9294 -15976 -2447 -512876
832781699658648704 9545 -15705 -2432 -512892
832781699676859008 9757 -15570 -2474 -512902
832781699695069312 9772 -15444 -2515 -512933
832781699713279616 9810 -15416 -2431 -512901
832781699731489920 9776 -15516 -2398 -512899
832781699749700224 9413 -15771 -2386 -512880
832781699767910528 9228 -16052 -2374 -512886
832781699786120832 8857 -16418 -2437 -512889
832781699804331136 8491 -16807 -2385 -512928
832781699822541440 8091 -17160 -2416 -512861
832781699840751744 7659 -17567 -2483 -512896
832781699858962048 7374 -17836 -2408 -512864
832781699877172352 7116 -18160 -2404 -512911
832781699895382656 6888 -18329 -2387 -512858
832781699913592960 6736 -18451 -2416 -512898
832781699931803264 6754 -18414 -2376 -512912
832781699950013568 6804 -18438 -2414 -512894
832781699968223872 6974 -18278 -2359 -512873
832781699986434176 7125 -18136 -2346 -512892
832781700004644480 7367 -17899 -2372 -512833
832781700022854784 7559 -17743 -2417 -512884
832781700041065172 7697 -17551 -2427 -512918
832781700059277312 7978 -17299 -2401 -512863
832781700077489408 8079 -17164 -2465 -512920
832781700095701504 8116 -17118 -2455 -512877
832781700113913728 8165 -17090 -2450 -512896
832781700132125824 8254 -16993 -2450 -512869
832781700150337920 8316 -16932 -2379 -512846
832781700168550016 8309 -16950 -2420 -512907
832781700186762240 8336 -16932 -2361 -512882
832781700204974336 8374 -16831 -2435 -512860
832781700223186432 8450 -16765 -2425 -512894
832781700241398528 8578 -16623 -2338 -512852
832781700259610752 8733 -16517 -2370 -512899
832781700277822848 8944 -16343 -2371 -512921
832781700296034944 9211 -16053 -2349 -512928
832781700314247040 9450 -15847 -2343 -512905
832781700332459136 9646 -15662 -2365 -512892
832781700350671360 9778 -15464 -2342 -512879
832781700368883456 9811 -15423 -2418 -512887
832781700387095552 9810 -15419 -2366 -512881
832781700405307648 9597 -15558 -2387 -512911
832781700423519872 9392 -15823 -2385 -512932
832781700441731968 9106 -16101 -2372 -512863
832781700459944064 8760 -16529 -2375 -512879
832781700478156160 8362 -16816 -2389 -512838
832781700496368256 7952 -17296 -2412 -512905
832781700514580480 7579 -17681 -2391 -512864
832781700532792576 7252 -17871 -2410 -512868
832781700551004672 6992 -18124 -2377 -512843
832781700569216768 6861 -18284 -2386 -512837
832781700587428992 6766 -18377 -2327 -512872
832781700605641088 6833 -18363 -2369 -512845
832781700623853184 6923 -18358 -2388 -512862
832781700642065280 6969 -18178 -2344 -512895
832781700660277504 7180 -17977 -2315 -512931
832781700678489600 7452 -17765 -2370 -512858
832781700696701696 7626 -17561 -2387 -512877
832781700714913792 7777 -17440 -2432 -512897
832781700733125888 7936 -17323 -2402 -512855
832781700751338112 8145 -17099 -2360 -512906
832781700769550208 8184 -17007 -2428 -512887
832781700787762304 8335 -16907 -2381 -512886
832781700805974430 8310 -16950 -2403 -512879
832781700824186752 8323 -16924 -2447 -512857
832781700842399104 8334 -16966 -2412 -512877
832781700860611584 8379 -16901 -2419 -512835
832781700878823936 8453 -16851 -2415 -512882
832781700897036288 8537 -16744 -2352 -512871
832781700915248768 8619 -16623 -2403 -512903
832781700933461120 8859 -16346 -2456 -512888
832781700951673600 9069 -16141 -2382 -512904
832781700969885952 9314 -15924 -2394 -512868
832781700988098304 9574 -15742 -2365 -512867
832781701006310784 9683 -15564 -2401 -512928
832781701024523136 9866 -15453 -2401 -512845
832781701042735488 9830 -15391 -2443 -512836
832781701060947968 9695 -15519 -2455 -512896
832781701079160320 9512 -15622 -2398 -512893
832781701097372672 9288 -15969 -2419 -512891
832781701115585152 8925 -16258 -2332 -512906
832781701133797504 8562 -16616 -2327 -512926
832781701152009856 8169 -17039 -2360 -512902
832781701170222336 7835 -17401 -2351 -512847
832781701188434688 7439 -17800 -2381 -512853
832781701206647168 7123 -18117 -2364 -512912
832781701224859520 6959 -18304 -2377 -512891
832781701243071872 6780 -18448 -2419 -512967
832781701261284352 6752 -18426 -2402 -512908
832781701279496704 6827 -18370 -2316 -512922
832781701297709056 6917 -18313 -2418 -512921
832781701315921536 7058 -18169 -2372 -512857
832781701334133888 7309 -17925 -2445 -512827
832781701352346240 7520 -17687 -2368 -512845
832781701370558720 7732 -17460 -2318 -512819
832781701388771072 7906 -17326 -2352 -512887
832781701406983552 8028 -17266 -2409 -512903
832781701425195904 8179 -17057 -2325 -512895
832781701443408256 8184 -17029 -2376 -512915
832781701461620736 8277 -17041 -2332 -512835
832781701479833088 8254 -16974 -2308 -512918
832781701498045440 8448 -16779 -2361 -512885
832781701516257920 8401 -16816 -2318 -512845
832781701534470272 8420 -16778 -2337 -512857
832781701552682750 8441 -16730 -2379 -512905
832781701570895104 8588 -16639 -2330 -512891
832781701589107456 8707 -16571 -2363 -512906
832781701607319808 8977 -16335 -2340 -512871
832781701625532288 9117 -16136 -2385 -512845
832781701643744640 9380 -15846 -2341 -512870
832781701661956992 9604 -15641 -2310 -512852
832781701680169344 9756 -15491 -2329 -512834
832781701698381824 9903 -15380 -2334 -512844
832781701716594176 9841 -15390 -2363 -512853
832781701734806528 9735 -15559 -2350 -512942
832781701753018880 9501 -15749 -2320 -512869
832781701771231232 9118 -16090 -2331 -512881
832781701789443712 8792 -16439 -2365 -512827
832781701807656064 8418 -16831 -2352 -512831
832781701825868416 8033 -17244 -2412 -512892
832781701844080768 7669 -17643 -2361 -512881
832781701862293120 7336 -17902 -2334 -512876
832781701880505600 7039 -18232 -2372 -512870
832781701898717952 6952 -18377 -2358 -512839
832781701916930304 6793 -18473 -2378 -512879
832781701935142656 6781 -18421 -2410 -512840
832781701953355136 6851 -18321 -2349 -512860
832781701971567488 6955 -18212 -2367 -512911
832781701989779840 7187 -18043 -2341 -512914
832781702007992192 7373 -17858 -2355 -512906
832781702026204544 7593 -17574 -2327 -512851
832781702044417024 7784 -17433 -2364 -512896
832781702062629376 8030 -17212 -2335 -512871
832781702080841728 8165 -17101 -2367 -512908
832781702099054080 8228 -17095 -2368 -512896
832781702117266432 8270 -16973 -2374 -512865
832781702135478912 8316 -16957 -2350 -512842
832781702153691264 8306 -16937 -2405 -512856
832781702171903616 8285 -16956 -2372 -512882
832781702190115968 8319 -16980 -2434 -512864
832781702208328448 8352 -16869 -2359 -512844
832781702226540800 8437 -16771 -2381 -512895
832781702244753152 8667 -16577 -2343 -512853
832781702262965504 8830 -16403 -2369 -512833
832781702281177856 9009 -16242 -2418 -512896
832781702299390336 9237 -15931 -2345 -512862
832781702317602694 9483 -15748 -2374 -512852
832781702335813632 9678 -15548 -2338 -512826
832781702354024576 9788 -15462 -2400 -512861
832781702372235392 9897 -15359 -2319 -512825
832781702390446336 9787 -15402 -2374 -512831
832781702408657152 9657 -15616 -2348 -512886
832781702426868096 9432 -15860 -2329 -512909
832781702445078912 9054 -16142 -2366 -512860
832781702463289856 8639 -16539 -2370 -512895
832781702481500800 8267 -16950 -2354 -512882
832781702499711616 7922 -17364 -2374 -512836
832781702517922560 7528 -17620 -2350 -512851
832781702536133376 7192 -17984 -2375 -512877
832781702554344320 6982 -18184 -2374 -512856
832781702572555264 6830 -18357 -2370 -512841
832781702590766080 6788 -18384 -2363 -512826
832781702608977024 6859 -18409 -2283 -512863
832781702627187840 6918 -18264 -2296 -512835
832781702645398784 7089 -18209 -2331 -512842
832781702663609600 7291 -18008 -2369 -512859
832781702681820544 7494 -17766 -2391 -512865
832781702700031488 7695 -17565 -2370 -512859
832781702718242304 7829 -17350 -2335 -512842
832781702736453248 8014 -17241 -2330 -512848
832781702754664064 8133 -17113 -2338 -512859
832781702772875008 8253 -17039 -2320 -512834
832781702791085824 8242 -16963 -2367 -512904
832781702809296768 8298 -17002 -2329 -512880
832781702827507712 8319 -16991 -2374 -512804
832781702845718528 8329 -16982 -2395 -512904
832781702863929472 8302 -16931 -2409 -512851
832781702882140288 8380 -16813 -2378 -512851
832781702900351232 8494 -16765 -2405 -512869
832781702918562048 8699 -16576 -2400 -512837
832781702936772992 8914 -16335 -2342 -512820
832781702954983936 9043 -16102 -2400 -512910
832781702973194752 9303 -15934 -2403 -512891
832781702991405696 9570 -15671 -2362 -512855
832781703009616512 9706 -15516 -2383 -512870
832781703027827456 10086 -15285 -2397 -512847
832781703046038400 9901 -15348 -2409 -512856
832781703064249216 9833 -15456 -2394 -512841
832781703082460068 9516 -15649 -2369 -512853
832781703100671872 9187 -15987 -2436 -512896
832781703118883712 8933 -16334 -2334 -512839
832781703137095424 8522 -16731 -2360 -512874
832781703155307264 8110 -17184 -2387 -512914
832781703173519104 7827 -17425 -2318 -512877
832781703191730816 7461 -17791 -2389 -512914
832781703209942656 7187 -18149 -2394 -512870
832781703228154496 6984 -18319 -2386 -512894
832781703246366208 6851 -18335 -2357 -512859
832781703264578048 6743 -18484 -2405 -512891
832781703282789888 6868 -18325 -2413 -512897
832781703301001600 6999 -18227 -2362 -512905
832781703319213440 7133 -18118 -2378 -512929
832781703337425280 7344 -17872 -2334 -512924
832781703355636992 7588 -17665 -2329 -512944
832781703373848832 7736 -17530 -2413 -512918
832781703392060672 7911 -17299 -2388 -512901
832781703410272384 8104 -17161 -2329 -512854
832781703428484224 8216 -17019 -2358 -512830
832781703446696064 8248 -17008 -2439 -512916
832781703464907776 8266 -16953 -2379 -512912
832781703483119616 8214 -17031 -2391 -512929
832781703501331456 8195 -17023 -2395 -512932
832781703519543168 8246 -16989 -2418 -512899
832781703537755008 8378 -16898 -2387 -512873
832781703555966848 8499 -16768 -2333 -512894
832781703574178560 8537 -16659 -2420 -512907
832781703592390400 8782 -16495 -2367 -512870
832781703610602240 8959 -16248 -2416 -512875
832781703628814080 9211 -15976 -2389 -512871
832781703647025792 9355 -15761 -2365 -512894
832781703665237632 9663 -15577 -2325 -512847
832781703683449472 9798 -15438 -2394 -512862
832781703701661184 9867 -15347 -2376 -512868
832781703719873024 9849 -15370 -2376 -512863
832781703738084864 9665 -15531 -2350 -512862
832781703756296576 9439 -15758 -2450 -512898
832781703774508416 9084 -16070 -2400 -512877
832781703792720256 8726 -16513 -2380 -512890
832781703810931968 8304 -16852 -2385 -512916
832781703829143808 7941 -17270 -2363 -512875
832781703847355590 7649 -17637 -2389 -512899
832781703865568768 7320 -17961 -2357 -512888
832781703883781888 7073 -18211 -2408 -512864
832781703901995008 6803 -18387 -2445 -512933
832781703920208256 6691 -18493 -2469 -512956
832781703938421376 6757 -18478 -2446 -512888
832781703956634496 6884 -18390 -2426 -512913
832781703974847616 7061 -18228 -2386 -512918
832781703993060736 7316 -17926 -2385 -512877
832781704011273856 7440 -17793 -2391 -512935
832781704029487104 7687 -17592 -2364 -512881
832781704047700224 7835 -17437 -2384 -512895
832781704065913344 8023 -17298 -2375 -512896
832781704084126464 8116 -17148 -2366 -512862
832781704102339584 8165 -17036 -2377 -512864
832781704120552704 8258 -16982 -2402 -512861
832781704138765952 8262 -16989 -2405 -512835
832781704156979072 8297 -16956 -2374 -512852
832781704175192192 8288 -16954 -2364 -512875
832781704193405312 8371 -16947 -2403 -512872
832781704211618432 8377 -16847 -2416 -512881
832781704229831552 8529 -16717 -2379 -512874
832781704248044800 8625 -16556 -2370 -512880
832781704266257920 8858 -16383 -2401 -512886
832781704284471040 9040 -16241 -2396 -512884
832781704302684160 9245 -15929 -2383 -512846
832781704320897280 9530 -15768 -2387 -512929
832781704339110528 9664 -15585 -2360 -512889
832781704357323648 9834 -15515 -2427 -512865
832781704375536768 9846 -15416 -2400 -512850
832781704393749888 9761 -15509 -2400 -512875
832781704411963008 9648 -15684 -2461 -512871
832781704430176128 9316 -15867 -2462 -512865
832781704448389376 8987 -16240 -2405 -512942
832781704466602496 8599 -16625 -2341 -512914
832781704484815616 8160 -17040 -2367 -512890
832781704503028736 7945 -17289 -2409 -512891
832781704521241856 7538 -17689 -2365 -512885
832781704539454976 7178 -18050 -2366 -512936
832781704557668224 6969 -18240 -2347 -512903
832781704575881344 6889 -18313 -2370 -512913
832781704594094464 6807 -18435 -2443 -512914
832781704612307570 6804 -18436 -2431 -512882
832781704630520704 6937 -18297 -2371 -512902
832781704648733824 7043 -18145 -2374 -512875
832781704666946944 7286 -17909 -2347 -512882
832781704685160192 7537 -17659 -2399 -512880
832781704703373312 7758 -17502 -2368 -512905
832781704721586432 7873 -17332 -2400 -512901
832781704739799552 8078 -17160 -2403 -512939
832781704758012672 8155 -17099 -2429 -512898
832781704776225792 8276 -17037 -2354 -512857
832781704794439040 8246 -16975 -2389 -512922
832781704812652160 8300 -16953 -2413 -512857
832781704830865280 8245 -16975 -2413 -512912
832781704849078400 8287 -16954 -2329 -512857
832781704867291520 8281 -16867 -2364 -512923
832781704885504640 8414 -16817 -2400 -512886
832781704903717888 8549 -16720 -2370 -512882
832781704921931008 8662 -16485 -2383 -512876
832781704940144128 8886 -16371 -2467 -512854
832781704958357248 9119 -16135 -2388 -512893
832781704976570368 9344 -15912 -2427 -512954
832781704994783488 9574 -15698 -2420 -512924
832781705012996736 9773 -15470 -2375 -512899
832781705031209856 9801 -15413 -2366 -512909
832781705049422976 9802 -15413 -2359 -512919
832781705067636096 9700 -15488 -2383 -512890
832781705085849216 9472 -15743 -2389 -512876
832781705104062464 9185 -16015 -2371 -512877
832781705122275584 8812 -16418 -2333 -512830
832781705140488704 8394 -16820 -2376 -512847
832781705158701824 7962 -17174 -2399 -512871
832781705176914944 7667 -17575 -2377 -512906
832781705195128064 7314 -17831 -2403 -512878
832781705213341312 7051 -18169 -2370 -512892
832781705231554432 6952 -18243 -2317 -512872
832781705249767552 6760 -18373 -2399 -512825
832781705267980672 6796 -18413 -2401 -512864
832781705286193792 6863 -18435 -2329 -512937
832781705304406912 6964 -18278 -2378 -512926
832781705322620160 7138 -18082 -2365 -512893
832781705340833280 7383 -17826 -2435 -512869
832781705359046400 7520 -17696 -2422 -512926
832781705377259550 7783 -17495 -2393 -512856
832781705395471488 7970 -17278 -2388 -512851
832781705413683456 8142 -17158 -2332 -512844
832781705431895552 8226 -16991 -2324 -512895
832781705450107520 8258 -16961 -2375 -512875
832781705468319616 8384 -16951 -2308 -512826
832781705486531584 8277 -16961 -2312 -512867
832781705504743552 8336 -16955 -2367 -512839
832781705522955648 8406 -16843 -2333 -512856
832781705541167616 8391 -16814 -2326 -512944
832781705559379584 8418 -16765 -2346 -512907
832781705577591680 8573 -16652 -2340 -512905
832781705595803648 8729 -16492 -2372 -512904
832781705614015744 8927 -16253 -2421 -512932
832781705632227712 9210 -16035 -2440 -512862
832781705650439680 9473 -15776 -2323 -512858
832781705668651776 9654 -15622 -2408 -512880
832781705686863744 9786 -15427 -2408 -512908
832781705705075712 9850 -15376 -2405 -512909
832781705723287808 9846 -15413 -2382 -512899
832781705741499776 9563 -15548 -2388 -512938
832781705759711872 9318 -15851 -2412 -512957
832781705777923840 9016 -16154 -2361 -512929
832781705796135808 8663 -16534 -2333 -512873
832781705814347904 8309 -16906 -2369 -512889
832781705832559872 7860 -17361 -2371 -512878
832781705850771840 7547 -17700 -2368 -512872
832781705868983936 7210 -18036 -2379 -512868
832781705887195904 6987 -18259 -2363 -512864
832781705905408000 6849 -18402 -2394 -512880
832781705923619968 6717 -18504 -2468 -512896
832781705941831936 6832 -18393 -2422 -512843
832781705960044032 6918 -18366 -2348 -512863
832781705978256000 7195 -18087 -2429 -512890
832781705996467968 7289 -17950 -2415 -512881
832781706014680064 7460 -17743 -2384 -512890
832781706032892032 7631 -17563 -2439 -512908
832781706051104128 7901 -17327 -2354 -512886
832781706069316096 7995 -17262 -2391 -512939
832781706087528064 8162 -17066 -2315 -512869
832781706105740160 8251 -17067 -2368 -512922
832781706123952128 8296 -16971 -2375 -512913
832781706142164226 8330 -16907 -2347 -512861
832781706160376576 8319 -16941 -2361 -512891
832781706178588928 8311 -16914 -2355 -512878
832781706196801280 8352 -16857 -2363 -512882
832781706215013632 8413 -16816 -2313 -512830
832781706233225984 8619 -16687 -2359 -512846
832781706251438336 8677 -16594 -2346 -512903
832781706269650688 8897 -16390 -2354 -512880
832781706287863040 9148 -16158 -2304 -512846
832781706306075264 9320 -15934 -2330 -512897
832781706324287616 9475 -15746 -2362 -512960
832781706342499968 9728 -15497 -2377 -512908
832781706360712320 9818 -15383 -2372 -512959
832781706378924672 9842 -15369 -2417 -512892
832781706397137024 9694 -15533 -2418 -512915
832781706415349376 9511 -15788 -2426 -512891
832781706433561728 9222 -16042 -2428 -512925
832781706451774080 8829 -16359 -2337 -512867
832781706469986432 8445 -16722 -2406 -512926
832781706488198784 8244 -16963 -2353 -512906
832781706506411136 7756 -17472 -2463 -512881
832781706524623488 7386 -17839 -2431 -512906
832781706542835840 7065 -18111 -2408 -512925
832781706561048064 6983 -18280 -2328 -512885
832781706579260416 6812 -18379 -2361 -512898
832781706597472768 6735 -18487 -2396 -512931
832781706615685120 6748 -18414 -2418 -512855
832781706633897472 6886 -18337 -2392 -512885
832781706652109824 7144 -18171 -2404 -512905
832781706670322176 7298 -17936 -2389 -512874
832781706688534528 7517 -17692 -2304 -512925
832781706706746880 7640 -17499 -2402 -512922
832781706724959232 7907 -17277 -2326 -512905
832781706743171584 8024 -17195 -2443 -512902
832781706761383936 8147 -17057 -2399 -512884
832781706779596288 8225 -17003 -2418 -512864
832781706797808640 8205 -16959 -2352 -512912
832781706816020864 8270 -16919 -2380 -512876
832781706834233216 8277 -16951 -2364 -512903
832781706852445568 8334 -16907 -2344 -512910
832781706870657920 8372 -16804 -2363 -512854
832781706888870272 8434 -16769 -2370 -512938
832781706907082636 8544 -16665 -2367 -512955
832781706925294208 8790 -16487 -2292 -512846
832781706943505792 8909 -16286 -2313 -512873
832781706961717504 9133 -16032 -2379 -512922
832781706979929088 9351 -15845 -2370 -512897
832781706998140672 9768 -15514 -2332 -512894
832781707016352256 9894 -15400 -2366 -512905
832781707034563968 9975 -15326 -2319 -512862
832781707052775552 9824 -15429 -2366 -512875
832781707070987136 9706 -15540 -2332 -512861
832781707089198720 9448 -15742 -2377 -512875
832781707107410432 9101 -16073 -2382 -512886
832781707125622016 8706 -16494 -2345 -512925
832781707143833600 8329 -16837 -2378 -512877
832781707162045184 7928 -17293 -2395 -512893
832781707180256896 7595 -17667 -2342 -512890
832781707198468480 7277 -17963 -2385 -512899
832781707216680064 7061 -18186 -2367 -512923
832781707234891648 6835 -18324 -2418 -512906
832781707253103360 6766 -18422 -2371 -512877
832781707271314944 6770 -18401 -2423 -512868
832781707289526528 6870 -18376 -2394 -512959
832781707307738112 7080 -18251 -2393 -512863
832781707325949824 7176 -18034 -2388 -512831
832781707344161408 7400 -17794 -2354 -512893
832781707362372992 7585 -17600 -2332 -512910
832781707380584576 7836 -17390 -2326 -512889
832781707398796288 7988 -17280 -2368 -512892
832781707417007872 8093 -17125 -2329 -512889
832781707435219456 8230 -17027 -2338 -512861
832781707453431040 8321 -16964 -2239 -512819
832781707471642752 8284 -16940 -2376 -512885
832781707489854336 8272 -16902 -2369 -512920
832781707508065920 8403 -16833 -2436 -512937
832781707526277504 8358 -16850 -2340 -512933
832781707544489216 8415 -16780 -2344 -512877
832781707562700800 8503 -16719 -2414 -512875
832781707580912384 8627 -16641 -2439 -512876
832781707599123968 8814 -16394 -2386 -512874
832781707617335680 9055 -16134 -2343 -512855
832781707635547264 9289 -15915 -2366 -512888
832781707653758848 9494 -15696 -2396 -512854
832781707671970528 9730 -15546 -2342 -512880
832781707690182912 9820 -15400 -2333 -512897
832781707708395264 9839 -15320 -2326 -512868
832781707726607616 9720 -15455 -2405 -512927
832781707744819968 9591 -15607 -2362 -512859
832781707763032320 9347 -15888 -2367 -512874
832781707781244672 9028 -16170 -2355 -512953
832781707799457024 8662 -16549 -2360 -512871
832781707817669376 8235 -17048 -2413 -512930
832781707835881600 7836 -17418 -2412 -512886
832781707854093952 7488 -17704 -2408 -512893
832781707872306304 7220 -18009 -2388 -512861
832781707890518656 6931 -18261 -2422 -512869
832781707908731008 6853 -18349 -2359 -512882
832781707926943360 6787 -18400 -2409 -512890
832781707945155712 6800 -18384 -2491 -512938
832781707963368064 6940 -18277 -2321 -512853
832781707981580416 7056 -18147 -2378 -512873
832781707999792768 7281 -17927 -2385 -512863
832781708018005120 7453 -17726 -2419 -512907
832781708036217472 7719 -17522 -2374 -512840
832781708054429824 7917 -17313 -2355 -512907
832781708072642176 8117 -17147 -2325 -512808
832781708090854400 8185 -17062 -2286 -512880
832781708109066752 8243 -16983 -2298 -512873
832781708127279104 8301 -16985 -2384 -512880
832781708145491456 8252 -16943 -2389 -512903
832781708163703808 8341 -16966 -2365 -512801
832781708181916160 8279 -16958 -2364 -512929
832781708200128512 8360 -16828 -2354 -512884
832781708218340864 8417 -16760 -2393 -512896
832781708236553216 8523 -16684 -2417 -512932
832781708254765568 8668 -16554 -2425 -512922
832781708272977920 8876 -16345 -2371 -512912
832781708291190272 9135 -16115 -2449 -512922
832781708309402624 9373 -15878 -2403 -512882
832781708327614976 9613 -15684 -2421 -512873
832781708345827200 9808 -15476 -2438 -512869
832781708364039552 9859 -15356 -2427 -512908
832781708382251904 9868 -15430 -2418 -512867
832781708400464256 9745 -15518 -2383 -512886
832781708418676608 9488 -15803 -2352 -512847
832781708436888938 9198 -16025 -2371 -512840
832781708455101312 8846 -16385 -2330 -512837
832781708473313664 8440 -16792 -2399 -512886
832781708491525888 8100 -17171 -2411 -512892
832781708509738240 7742 -17523 -2306 -512869
832781708527950592 7373 -17864 -2347 -512850
832781708546162816 7071 -18154 -2349 -512863
832781708564375168 6927 -18312 -2406 -512876
832781708582587520 6815 -18354 -2357 -512886
832781708600799744 6802 -18398 -2354 -512919
832781708619012096 6886 -18414 -2445 -512892
832781708637224320 7009 -18240 -2375 -512842
832781708655436672 7139 -18067 -2402 -512850
832781708673649024 7359 -17851 -2400 -512840
832781708691861248 7592 -17622 -2380 -512841
832781708710073600 7833 -17348 -2352 -512817
832781708728285952 8006 -17214 -2359 -512892
832781708746498176 8110 -17102 -2319 -512893
832781708764710528 8222 -16978 -2329 -512876
832781708782922880 8267 -16921 -2365 -512879
832781708801135104 8283 -16934 -2317 -512896
832781708819347456 8310 -16955 -2360 -512863
832781708837559808 8289 -16954 -2379 -512943
832781708855772032 8403 -16886 -2334 -512859
832781708873984384 8455 -16793 -2342 -512857
832781708892196736 8482 -16739 -2298 -512847
832781708910408960 8627 -16604 -2411 -512942
832781708928621312 8835 -16393 -2330 -512895
832781708946833536 8995 -16214 -2340 -512876
832781708965045888 9238 -15973 -2369 -512893
832781708983258240 9463 -15778 -2399 -512886
832781709001470464 9603 -15588 -2398 -512867
832781709019682816 9811 -15395 -2345 -512845
832781709037895168 9907 -15312 -2293 -512836
832781709056107392 9802 -15412 -2346 -512896
832781709074319744 9756 -15588 -2318 -512839
832781709092532096 9432 -15852 -2311 -512879
832781709110744320 9112 -16154 -2329 -512921
832781709128956672 8779 -16517 -2363 -512865
832781709147169024 8302 -16926 -2360 -512828
832781709165381248 7913 -17265 -2405 -512886
832781709183593600 7609 -17630 -2369 -512869
832781709201805824 7234 -17913 -2399 -512862
832781709220017536 7005 -18149 -2387 -512922
832781709238229248 6840 -18320 -2369 -512843
832781709256440832 6796 -18398 -2374 -512845
832781709274652544 6804 -18346 -2347 -512891
832781709292864128 6939 -18237 -2329 -512856
832781709311075840 7142 -18065 -2312 -512809
832781709329287424 7261 -17973 -2331 -512850
832781709347499136 7482 -17805 -2385 -512887
832781709365710720 7688 -17513 -2346 -512860
832781709383922432 7904 -17355 -2357 -512852
832781709402134016 8047 -17249 -2338 -512902
832781709420345728 8159 -17085 -2341 -512799
832781709438557312 8190 -17014 -2401 -512877
832781709456769024 8284 -16949 -2366 -512895
832781709474980736 8304 -16923 -2379 -512930
832781709493192320 8295 -16936 -2418 -512854
832781709511404032 8311 -16858 -2315 -512889
832781709529615616 8316 -16895 -2366 -512915
832781709547827328 8454 -16779 -2317 -512876
832781709566038912 8511 -16656 -2398 -512871
832781709584250624 8687 -16512 -2334 -512845
832781709602462208 8923 -16407 -2400 -512808
832781709620673920 9070 -16137 -2405 -512885
832781709638885504 9292 -15863 -2405 -512881
832781709657097216 9532 -15647 -2428 -512884
832781709675308800 9738 -15447 -2375 -512877
832781709693520512 9803 -15413 -2357 -512860
832781709711732224 9828 -15364 -2342 -512813
832781709729943808 9760 -15471 -2334 -512856
832781709748155520 9557 -15652 -2412 -512924
832781709766367104 9302 -15894 -2336 -512892
832781709784578816 8970 -16289 -2334 -512857
832781709802790400 8580 -16692 -2309 -512893
832781709821002112 8167 -17109 -2377 -512903
832781709839213696 7758 -17479 -2403 -512854
832781709857425408 7451 -17800 -2426 -512857
832781709875636992 7146 -18074 -2384 -512881
832781709893848704 6912 -18265 -2385 -512905
832781709912060288 6842 -18359 -2378 -512886
832781709930272000 6785 -18483 -2443 -512937
832781709948483712 6865 -18348 -2399 -512903
832781709966695250 7003 -18282 -2360 -512914
832781709984907008 7189 -18058 -2350 -512909
832781710003118720 7535 -17773 -2406 -512890
832781710021330432 7645 -17604 -2385 -512863
832781710039542144 7732 -17543 -2463 -512912
832781710057753856 7945 -17325 -2354 -512892
832781710075965696 8083 -17165 -2346 -512891
832781710094177408 8161 -17089 -2324 -512873
832781710112389120 8193 -17020 -2403 -512925
832781710130600832 8270 -16959 -2303 -512939
832781710148812544 8275 -16953 -2316 -512855
832781710167024256 8306 -16914 -2336 -512903
832781710185235968 8280 -16911 -2429 -512890
832781710203447680 8391 -16853 -2320 -512876
832781710221659392 8421 -16750 -2413 -512870
832781710239871104 8545 -16659 -2350 -512850
832781710258082944 8789 -16475 -2340 -512867
832781710276294656 8963 -16219 -2325 -512847
832781710294506368 9223 -16017 -2350 -512841
832781710312718080 9421 -15813 -2349 -512902
832781710330929792 9572 -15619 -2388 -512899
832781710349141504 9737 -15486 -2370 -512848
832781710367353216 9876 -15331 -2345 -512814
832781710385564928 9781 -15435 -2412 -512899
832781710403776640 9693 -15500 -2384 -512817
832781710421988480 9482 -15747 -2378 -512906
832781710440200192 9152 -16082 -2335 -512909
832781710458411904 8728 -16401 -2349 -512844
832781710476623616 8389 -16821 -2431 -512897
832781710494835328 7979 -17196 -2388 -512902
832781710513047040 7724 -17471 -2346 -512862
832781710531258752 7368 -17871 -2320 -512884
832781710549470464 7008 -18152 -2348 -512891
832781710567682176 6908 -18276 -2383 -512860
832781710585893888 6836 -18469 -2430 -512891
832781710604105728 6871 -18428 -2374 -512877
832781710622317440 6902 -18352 -2376 -512851
832781710640529152 7001 -18242 -2452 -512880
832781710658740864 7164 -18057 -2389 -512876
832781710676952576 7412 -17803 -2378 -512885
832781710695164288 7627 -17574 -2378 -512858
832781710713376000 7835 -17438 -2392 -512909
832781710731587720 7952 -17238 -2442 -512867
832781710749799424 8126 -17090 -2376 -512870
832781710768011136 8200 -17063 -2333 -512841
832781710786222848 8229 -17000 -2341 -512846
832781710804434432 8301 -16931 -2346 -512906
832781710822646144 8307 -16894 -2335 -512869
832781710840857856 8370 -16889 -2371 -512912
832781710859069568 8385 -16882 -2362 -512929
832781710877281280 8430 -16760 -2337 -512878
832781710895492992 8575 -16713 -2329 -512853
832781710913704576 8687 -16564 -2297 -512872
832781710931916288 8870 -16386 -2333 -512896
832781710950128000 9086 -16162 -2354 -512892
832781710968339712 9236 -15935 -2419 -512906
832781710986551424 9474 -15696 -2399 -512889
832781711004763136 9644 -15570 -2437 -512931
832781711022974720 10013 -15236 -2395 -512923
832781711041186432 9926 -15314 -2435 -512948
832781711059398144 9841 -15365 -2306 -512893
832781711077609856 9634 -15636 -2313 -512879
832781711095821568 9351 -15846 -2300 -512856
832781711114033152 8993 -16253 -2371 -512946
832781711132244864 8620 -16594 -2370 -512868
832781711150456576 8243 -16961 -2389 -512870
832781711168668288 7850 -17355 -2360 -512916
832781711186880000 7520 -17752 -2345 -512901
832781711205091712 7183 -18056 -2382 -512908
832781711223303296 6947 -18221 -2393 -512913
832781711241515008 6813 -18355 -2358 -512925
832781711259726720 6854 -18433 -2338 -512860
832781711277938432 6859 -18401 -2376 -512851
832781711296150144 6970 -18274 -2316 -512873
832781711314361728 7076 -18147 -2350 -512829
832781711332573440 7328 -17942 -2338 -512822
832781711350785152 7516 -17737 -2394 -512868
832781711368996864 7750 -17538 -2362 -512839
832781711387208576 7942 -17364 -2316 -512859
832781711405420288 8077 -17146 -2333 -512882
832781711423631872 8166 -17003 -2344 -512890
832781711441843584 8231 -17002 -2374 -512919
832781711460055296 8324 -16949 -2375 -512864
832781711478267008 8296 -16925 -2389 -512884
832781711496478664 8319 -16909 -2363 -512908
832781711514690944 8299 -16877 -2365 -512893
832781711532903168 8344 -16829 -2378 -512935
832781711551115264 8451 -16755 -2326 -512924
832781711569327488 8560 -16644 -2360 -512874
832781711587539584 8728 -16466 -2343 -512837
832781711605751808 8968 -16238 -2328 -512859
832781711623963904 9169 -16054 -2388 -512872
832781711642176128 9342 -15855 -2397 -512839
832781711660388224 9556 -15628 -2353 -512853
832781711678600448 9786 -15401 -2348 -512868
832781711696812544 9889 -15279 -2385 -512918
832781711715024768 9872 -15350 -2366 -512896
832781711733236864 9753 -15478 -2375 -512897
832781711751449088 9593 -15688 -2318 -512805
832781711769661184 9238 -16030 -2333 -512890
832781711787873408 8881 -16402 -2365 -512899
832781711806085504 8438 -16800 -2324 -512935
832781711824297728 8042 -17188 -2410 -512913
832781711842509824 7635 -17547 -2382 -512907
832781711860722048 7298 -17888 -2378 -512928
832781711878934144 7012 -18165 -2419 -512880
832781711897146368 6872 -18336 -2379 -512891
832781711915358464 6794 -18421 -2349 -512926
832781711933570688 6812 -18380 -2400 -512861
832781711951782784 6817 -18380 -2416 -512847
832781711969995008 6938 -18273 -2361 -512855
832781711988207104 7290 -17973 -2375 -512885
832781712006419328 7401 -17862 -2346 -512919
832781712024631424 7624 -17561 -2306 -512853
832781712042843648 7833 -17478 -2398 -512869
832781712061055744 7993 -17326 -2329 -512874
832781712079267968 8109 -17152 -2372 -512865
832781712097480064 8241 -17032 -2316 -512869
832781712115692288 8293 -16916 -2332 -512845
832781712133904384 8295 -16952 -2347 -512899
832781712152116608 8307 -16917 -2360 -512861
832781712170328704 8389 -16903 -2386 -512869
832781712188540928 8349 -16823 -2406 -512903
832781712206753024 8445 -16767 -2337 -512877
832781712224965248 8500 -16652 -2328 -512905
832781712243177344 8677 -16541 -2368 -512870
832781712261389444 8799 -16409 -2383 -512891
832781712279601792 9046 -16225 -2338 -512878
832781712297814144 9254 -16009 -2381 -512857
832781712316026496 9465 -15806 -2377 -512893
832781712334238848 9734 -15481 -2334 -512884
832781712352451200 9839 -15387 -2410 -512887
832781712370663552 9911 -15305 -2329 -512930
832781712388875904 9869 -15387 -2368 -512928
832781712407088256 9671 -15516 -2400 -512876
832781712425300480 9402 -15809 -2344 -512888
832781712443512832 9024 -16180 -2374 -512901
832781712461725184 8712 -16515 -2360 -512901
832781712479937536 8273 -16938 -2365 -512962
832781712498149888 7922 -17339 -2415 -512942
832781712516362240 7512 -17642 -2347 -512895
832781712534574592 7269 -17966 -2348 -512860
832781712552786944 6974 -18325 -2402 -512920
832781712570999296 6894 -18353 -2371 -512903
832781712589211648 6816 -18418 -2368 -512879
832781712607424000 6819 -18455 -2386 -512855
832781712625636352 6848 -18345 -2400 -512876
832781712643848704 7025 -18200 -2388 -512893
832781712662061056 7251 -17970 -2378 -512825
832781712680273280 7487 -17740 -2380 -512870
832781712698485632 7667 -17541 -2370 -512891
832781712716697984 7903 -17327 -2361 -512890
832781712734910336 8042 -17203 -2357 -512875
832781712753122688 8136 -17038 -2377 -512908
832781712771335040 8199 -16920 -2330 -512901
832781712789547392 8258 -16905 -2359 -512890
832781712807759744 8309 -16933 -2349 -512835
832781712825972096 8275 -16862 -2381 -512869
832781712844184448 8341 -16902 -2349 -512841
832781712862396800 8396 -16794 -2299 -512824
832781712880609152 8478 -16814 -2324 -512871
832781712898821504 8529 -16683 -2337 -512865
832781712917033856 8708 -16483 -2323 -512830
832781712935246080 8885 -16320 -2311 -512851
832781712953458432 9129 -16112 -2360 -512853
832781712971670784 9427 -15881 -2293 -512872
832781712989883136 9507 -15729 -2348 -512978
832781713008095488 9708 -15412 -2367 -512914
832781713026307854 9907 -15298 -2346 -512919
832781713044519040 9935 -15364 -2377 -512888
832781713062730240 9806 -15419 -2325 -512906
832781713080941312 9570 -15619 -2313 -512940
832781713099152512 9245 -15965 -2282 -512843
832781713117363584 8945 -16215 -2355 -512884
832781713135574784 8634 -16623 -2368 -512859
832781713153785984 8117 -17083 -2455 -512896
832781713171997056 7768 -17446 -2368 -512918
832781713190208256 7442 -17732 -2377 -512873
832781713208419328 7129 -18026 -2343 -512894
832781713226630528 6966 -18277 -2353 -512834
832781713244841600 6862 -18364 -2409 -512867
832781713263052800 6872 -18349 -2278 -512816
832781713281264000 6874 -18349 -2299 -512875
832781713299475072 6970 -18212 -2334 -512858
832781713317686272 7100 -18053 -2352 -512882
832781713335897344 7285 -17902 -2350 -512876
832781713354108544 7536 -17687 -2357 -512891
832781713372319744 7794 -17487 -2395 -512828
832781713390530816 7899 -17275 -2376 -512879
832781713408742016 8084 -17162 -2361 -512861
832781713426953088 8181 -17023 -2379 -512919
832781713445164288 8230 -16926 -2386 -512881
832781713463375360 8238 -16867 -2382 -512903
832781713481586560 8271 -16877 -2396 -512865
832781713499797760 8288 -16864 -2349 -512836
832781713518008832 8346 -16866 -2328 -512863
832781713536220032 8545 -16696 -2311 -512873
832781713554431104 8531 -16762 -2358 -512910
832781713572642304 8593 -16591 -2366 -512923
832781713590853504 8805 -16453 -2340 -512873
832781713609064576 9034 -16273 -2330 -512838
832781713627275776 9209 -16025 -2368 -512867
832781713645486848 9393 -15787 -2301 -512905
832781713663698048 9684 -15574 -2291 -512884
832781713681909248 9837 -15428 -2367 -512918
832781713700120320 9902 -15332 -2349 -512857
832781713718331520 9868 -15329 -2382 -512949
832781713736542588 9725 -15482 -2346 -512897
832781713754755712 9521 -15642 -2348 -512863
832781713772968832 9194 -15965 -2331 -512825
832781713791181952 8791 -16385 -2343 -512806
832781713809395200 8432 -16772 -2336 -512874
832781713827608320 8000 -17155 -2405 -512856
832781713845821440 7658 -17594 -2375 -512852
832781713864034560 7346 -17902 -2370 -512865
832781713882247680 7120 -18169 -2403 -512907
832781713900460800 6942 -18320 -2354 -512909
832781713918674048 6795 -18376 -2301 -512874
832781713936887168 6803 -18380 -2311 -512892
832781713955100288 6906 -18309 -2329 -512889
832781713973313408 6967 -18202 -2452 -512901
832781713991526528 7194 -17994 -2366 -512895
832781714009739648 7439 -17783 -2394 -512931
832781714027952896 7695 -17625 -2335 -512837
832781714046166016 7859 -17292 -2296 -512837
832781714064379136 8065 -17220 -2377 -512834
832781714082592256 8155 -17127 -2342 -512856
832781714100805376 8276 -16973 -2315 -512850
832781714119018496 8310 -16866 -2286 -512877
832781714137231744 8333 -16883 -2315 -512884
832781714155444864 8380 -16929 -2335 -512868
832781714173657984 8362 -16880 -2327 -512902
832781714191871104 8341 -16840 -2334 -512915
832781714210084224 8387 -16741 -2337 -512908
832781714228297472 8483 -16682 -2349 -512874
832781714246510592 8609 -16531 -2342 -512881
832781714264723712 8787 -16307 -2286 -512844
832781714282936832 9070 -16163 -2354 -512838
832781714301149952 9248 -15968 -2360 -512880
832781714319363072 9522 -15660 -2316 -512847
832781714337576320 9727 -15475 -2346 -512868
832781714355789440 9824 -15327 -2326 -512904
832781714374002560 9887 -15316 -2324 -512892
832781714392215680 9783 -15391 -2301 -512874
832781714410428800 9677 -15568 -2326 -512879
832781714428641920 9408 -15920 -2383 -512919
832781714446855168 9029 -16178 -2365 -512893
832781714465068288 8628 -16578 -2367 -512897
832781714483281408 8367 -16833 -2369 -512906
832781714501494568 7896 -17240 -2347 -512943
832781714519706496 7522 -17605 -2327 -512862
832781714537918464 7241 -17957 -2318 -512877
832781714556130432 7034 -18160 -2347 -512869
832781714574342400 6864 -18353 -2371 -512891
832781714592554368 6802 -18410 -2335 -512877
832781714610766336 6840 -18372 -2292 -512835
832781714628978432 6964 -18223 -2371 -512885
832781714647190400 7105 -18070 -2308 -512864
832781714665402368 7350 -17950 -2406 -512848
832781714683614336 7538 -17680 -2320 -512850
832781714701826304 7803 -17572 -2354 -512841
832781714720038272 7909 -17314 -2323 -512857
832781714738250240 8151 -17168 -2330 -512863
832781714756462208 8217 -17022 -2367 -512884
832781714774674176 8277 -16932 -2314 -512842
832781714792886144 8318 -16856 -2348 -512878
832781714811098112 8353 -16871 -2292 -512928
832781714829310208 8355 -16919 -2332 -512912
832781714847522176 8341 -16844 -2308 -512893
832781714865734144 8447 -16759 -2321 -512875
832781714883946112 8490 -16765 -2421 -512873
832781714902158080 8643 -16631 -2355 -512842
832781714920370048 8727 -16499 -2360 -512844
832781714938582016 8896 -16303 -2355 -512809
832781714956793984 9156 -16017 -2360 -512835
832781714975005952 9394 -15792 -2371 -512853
832781714993217920 9598 -15585 -2396 -512877
832781715011429888 9836 -15429 -2372 -512882
832781715029641984 9988 -15317 -2320 -512863
832781715047853952 9937 -15342 -2351 -512862
832781715066065920 9810 -15471 -2341 -512869
832781715084277888 9589 -15615 -2334 -512839
832781715102489856 9174 -15976 -2376 -512907
832781715120701824 8912 -16336 -2341 -512852
832781715138913792 8509 -16719 -2361 -512892
832781715157125760 8099 -17111 -2306 -512886
832781715175337728 7748 -17518 -2313 -512892
832781715193549696 7424 -17805 -2302 -512862
832781715211761664 7135 -18125 -2352 -512919
832781715229973760 6955 -18311 -2357 -512891
832781715248185728 6853 -18353 -2331 -512860
832781715266397718 6803 -18411 -2344 -512831
832781715284609280 6869 -18372 -2344 -512903
832781715302820864 6988 -18222 -2364 -512885
832781715321032576 7156 -18065 -2325 -512904
832781715339244160 7424 -17881 -2349 -512885
832781715357455744 7652 -17624 -2299 -512918
832781715375667328 7834 -17428 -2289 -512868
832781715393879040 7941 -17280 -2331 -512846
832781715412090624 8064 -17107 -2368 -512936
832781715430302208 8226 -17010 -2311 -512841
832781715448513792 8286 -16981 -2330 -512884
832781715466725504 8285 -16975 -2363 -512912
832781715484937088 8309 -16867 -2295 -512884
832781715503148672 8374 -16892 -2374 -512926
832781715521360256 8500 -16736 -2316 -512855
832781715539571968 8451 -16751 -2332 -512843
832781715557783552 8493 -16737 -2396 -512907
832781715575995136 8595 -16597 -2364 -512942
832781715594206720 8815 -16444 -2321 -512910
832781715612418432 9002 -16212 -2334 -512904
832781715630630016 9254 -16000 -2300 -512895
832781715648841600 9492 -15841 -2375 -512894
832781715667053184 9677 -15609 -2361 -512838
832781715685264896 9852 -15386 -2372 -512882
832781715703476480 9908 -15359 -2311 -512875
832781715721688064 9864 -15390 -2325 -512903
832781715739899648 9657 -15608 -2359 -512885
832781715758111360 9454 -15865 -2392 -512880
832781715776322944 9135 -16118 -2354 -512821
832781715794534528 8711 -16519 -2376 -512848
832781715812746112 8354 -16888 -2353 -512863
832781715830957824 8014 -17261 -2375 -512897
832781715849169408 7665 -17637 -2276 -512876
832781715867380992 7312 -17945 -2293 -512828
832781715885592576 7066 -18161 -2287 -512859
832781715903804288 6906 -18318 -2314 -512838
832781715922015872 6813 -18416 -2335 -512871
832781715940227456 6776 -18417 -2412 -512939
832781715958439040 6889 -18305 -2359 -512932
832781715976650752 7059 -18179 -2300 -512886
832781715994862336 7222 -17973 -2355 -512928
832781716013073920 7471 -17775 -2357 -512879
832781716031285610 7765 -17452 -2360 -512933
832781716049497984 7938 -17313 -2333 -512927
832781716067710336 8032 -17180 -2398 -512909
832781716085922688 8158 -17020 -2354 -512877
832781716104135040 8226 -16994 -2369 -512942
832781716122347392 8316 -16953 -2366 -512897
832781716140559744 8318 -16923 -2335 -512872
832781716158772096 8361 -16863 -2355 -512820
832781716176984448 8341 -16828 -2367 -512848
832781716195196672 8384 -16885 -2338 -512834
832781716213409024 8465 -16742 -2318 -512835
832781716231621376 8521 -16651 -2310 -512880
832781716249833728 8739 -16579 -2367 -512905
832781716268046080 8866 -16376 -2378 -512858
832781716286258432 9129 -16122 -2404 -512862
832781716304470784 9357 -15908 -2387 -512881
832781716322683136 9607 -15632 -2300 -512877
832781716340895488 9810 -15424 -2282 -512846
832781716359107840 9873 -15308 -2299 -512855
832781716377320192 9911 -15315 -2352 -512830
832781716395532544 9808 -15418 -2315 -512848
832781716413744896 9648 -15634 -2364 -512844
832781716431957248 9364 -15886 -2368 -512841
832781716450169472 9001 -16216 -2394 -512910
832781716468381824 8594 -16572 -2310 -512831
832781716486594176 8241 -16995 -2290 -512830
832781716504806528 7805 -17383 -2308 -512826
832781716523018880 7476 -17795 -2327 -512865
832781716541231232 7307 -17925 -2325 -512879
832781716559443584 6991 -18211 -2382 -512901
832781716577655936 6912 -18389 -2354 -512842
832781716595868288 6864 -18388 -2413 -512880
832781716614080640 6889 -18376 -2420 -512909
832781716632292992 6986 -18253 -2386 -512938
832781716650505344 7163 -18102 -2408 -512877
832781716668717696 7379 -17898 -2371 -512879
832781716686930048 7548 -17636 -2375 -512916
832781716705142272 7756 -17402 -2354 -512933
832781716723354624 7937 -17249 -2301 -512926
832781716741566976 8082 -17087 -2386 -512897
832781716759779328 8225 -17022 -2386 -512861
832781716777991680 8258 -16939 -2364 -512910
832781716796204020 8293 -16922 -2340 -512878
832781716814414208 8358 -16931 -2360 -512872
832781716832624384 8322 -16882 -2319 -512906
832781716850834688 8433 -16830 -2377 -512901
832781716869044864 8467 -16772 -2343 -512813
832781716887255168 8494 -16714 -2325 -512887
832781716905465344 8619 -16587 -2347 -512853
832781716923675648 8762 -16412 -2329 -512842
832781716941885824 8998 -16226 -2343 -512868
832781716960096128 9157 -15988 -2306 -512876
832781716978306304 9435 -15795 -2352 -512936
832781716996516608 9652 -15523 -2331 -512902
832781717014726784 9833 -15344 -2357 -512862
832781717032937088 9909 -15317 -2327 -512901
832781717051147264 9916 -15359 -2316 -512848
832781717069357568 9719 -15462 -2294 -512873
832781717087567744 9505 -15725 -2317 -512889
832781717105777920 9219 -16044 -2343 -512859
832781717123988224 8874 -16411 -2353 -512850
832781717142198400 8459 -16764 -2335 -512843
832781717160408704 8041 -17180 -2374 -512895
832781717178618880 7678 -17548 -2325 -512858
832781717196829184 7363 -17853 -2361 -512908
832781717215039360 7113 -18099 -2320 -512890
832781717233249664 6918 -18300 -2388 -512916
832781717251459840 6898 -18390 -2334 -512890
832781717269670144 6891 -18341 -2332 -512869
832781717287880320 6908 -18282 -2383 -512853
832781717306090624 7055 -18154 -2347 -512829
832781717324300800 7275 -17960 -2334 -512874
832781717342511104 7383 -17813 -2406 -512871
832781717360721280 7656 -17590 -2332 -512867
832781717378931456 7867 -17427 -2377 -512878
832781717397141760 8040 -17192 -2349 -512899
832781717415351936 8160 -17093 -2346 -512894
832781717433562240 8207 -16981 -2412 -512964
832781717451772416 8312 -16949 -2301 -512920
832781717469982720 8354 -16885 -2295 -512909
832781717488192896 8355 -16884 -2323 -512906
832781717506403200 8335 -16903 -2310 -512862
832781717524613376 8335 -16875 -2313 -512924
832781717542823680 8380 -16806 -2346 -512945
832781717561033926 8522 -16729 -2308 -512892
832781717579245568 8696 -16536 -2321 -512892
832781717597457152 8776 -16397 -2344 -512901
832781717615668608 9067 -16140 -2294 -512843
832781717633880192 9331 -15894 -2293 -512840
832781717652091776 9541 -15691 -2299 -512894
832781717670303232 9770 -15419 -2278 -512837
832781717688514816 9862 -15382 -2319 -512905
832781717706726400 9945 -15257 -2300 -512877
832781717724937984 9874 -15408 -2280 -512837
832781717743149440 9666 -15535 -2320 -512846
832781717761361024 9384 -15764 -2306 -512884
832781717779572608 9013 -16163 -2363 -512846
832781717797784064 8691 -16437 -2283 -512869
832781717815995648 8312 -16864 -2267 -512820
832781717834207232 7958 -17265 -2279 -512842
832781717852418688 7604 -17607 -2281 -512850
832781717870630272 7339 -17939 -2350 -512841
832781717888841856 7080 -18165 -2329 -512868
832781717907053312 6900 -18276 -2336 -512864
832781717925264896 6869 -18337 -2347 -512856
832781717943476480 6816 -18308 -2341 -512872
832781717961687936 6979 -18271 -2317 -512829
832781717979899520 7132 -18085 -2327 -512856
832781717998111104 7329 -17889 -2346 -512846
832781718016322688 7486 -17727 -2394 -512874
832781718034534144 7737 -17485 -2315 -512839
832781718052745728 7868 -17241 -2296 -512893
832781718070957312 8135 -17135 -2337 -512878
832781718089168768 8145 -16990 -2393 -512839
832781718107380352 8243 -16995 -2380 -512907
832781718125591936 8310 -16978 -2363 -512895
832781718143803392 8279 -16965 -2386 -512874
832781718162014976 8272 -16961 -2412 -512938
832781718180226560 8348 -16838 -2366 -512875
832781718198438016 8398 -16794 -2323 -512889
832781718216649600 8467 -16697 -2346 -512892
832781718234861184 8510 -16635 -2307 -512922
832781718253072640 8703 -16497 -2338 -512907
832781718271284224 8920 -16258 -2296 -512892
832781718289495808 9125 -16001 -2309 -512877
832781718307707392 9388 -15776 -2287 -512880
832781718325918778 9599 -15611 -2351 -512939
832781718344129408 9745 -15402 -2368 -512875
832781718362340096 9855 -15332 -2349 -512875
832781718380550912 9888 -15308 -2318 -512882
832781718398761600 9787 -15344 -2299 -512816
832781718416972416 9613 -15657 -2257 -512882
832781718435183104 9276 -15897 -2344 -512869
832781718453393920 8904 -16268 -2335 -512908
832781718471604608 8546 -16677 -2335 -512923
832781718489815424 8102 -17079 -2303 -512852
832781718508026112 7738 -17410 -2313 -512872
832781718526236800 7505 -17645 -2320 -512851
832781718544447616 7245 -17957 -2333 -512862
832781718562658304 7037 -18154 -2310 -512855
832781718580869120 6904 -18319 -2319 -512850
832781718599079808 6883 -18331 -2354 -512860
832781718617290624 6902 -18330 -2375 -512872
832781718635501312 6993 -18221 -2359 -512897
832781718653712128 7167 -18035 -2387 -512859
832781718671922816 7391 -17823 -2364 -512912
832781718690133504 7590 -17628 -2353 -512874
832781718708344320 7777 -17361 -2385 -512857
832781718726555008 7929 -17246 -2325 -512878
832781718744765824 8096 -17133 -2248 -512878
832781718762976512 8192 -17063 -2292 -512862
832781718781187328 8322 -16934 -2289 -512896
832781718799398016 8315 -16896 -2324 -512887
832781718817608704 8365 -16843 -2253 -512886
832781718835819520 8362 -16828 -2270 -512908
832781718854030208 8380 -16848 -2293 -512834
832781718872241024 8468 -16680 -2250 -512823
832781718890451712 8537 -16718 -2359 -512847
832781718908662528 8660 -16523 -2316 -512855
832781718926873216 8790 -16423 -2324 -512858
832781718945084032 9006 -16178 -2302 -512795
832781718963294720 9269 -15918 -2249 -512809
832781718981505408 9439 -15704 -2309 -512873
832781718999716224 9693 -15506 -2321 -512848
832781719017926912 9875 -15364 -2262 -512826
832781719036137728 10101 -15122 -2323 -512929
832781719054348416 9961 -15250 -2294 -512855
832781719072559232 9770 -15450 -2303 -512821
832781719090770048 9507 -15732 -2414 -512853
832781719108979584 9125 -16032 -2320 -512847
832781719127189120 8794 -16391 -2308 -512885
832781719145398784 8358 -16841 -2279 -512891
832781719163608320 8027 -17256 -2279 -512844
832781719181817856 7656 -17551 -2324 -512847
832781719200027520 7344 -17843 -2253 -512848
832781719218237056 7090 -18101 -2291 -512819
832781719236446720 6946 -18274 -2323 -512844
832781719254656256 6827 -18389 -2371 -512852
832781719272865792 6819 -18339 -2328 -512871
832781719291075456 6940 -18217 -2324 -512861
832781719309284992 7074 -18114 -2301 -512882
832781719327494528 7299 -17915 -2332 -512828
832781719345704192 7490 -17689 -2270 -512802
832781719363913728 7678 -17534 -2325 -512868
832781719382123264 7832 -17364 -2355 -512872
832781719400332928 8043 -17141 -2384 -512887
832781719418542464 8190 -17035 -2343 -512876
832781719436752000 8265 -16899 -2334 -512813
832781719454961664 8259 -16914 -2385 -512893
832781719473171200 8452 -16787 -2359 -512830
832781719491380864 8414 -16714 -2309 -512854
832781719509590400 8360 -16755 -2280 -512877
832781719527799936 8390 -16762 -2335 -512889
832781719546009600 8451 -16692 -2335 -512836
832781719564219136 8582 -16625 -2318 -512890
832781719582428672 8731 -16511 -2320 -512886
832781719600638336 8864 -16349 -2354 -512904
832781719618847872 9103 -16168 -2323 -512860
832781719637057408 9300 -15962 -2299 -512907
832781719655267072 9522 -15724 -2362 -512855
832781719673476608 9738 -15493 -2361 -512867
832781719691686144 9900 -15359 -2319 -512892
832781719709895808 9917 -15354 -2328 -512827
832781719728105344 9825 -15425 -2344 -512881
832781719746315008 9638 -15579 -2343 -512881
832781719764524544 9326 -15926 -2265 -512880
832781719782734080 9017 -16257 -2307 -512881
832781719800943744 8586 -16627 -2387 -512885
832781719819153280 8219 -17012 -2368 -512944
832781719837362816 7834 -17385 -2329 -512904
832781719855572490 7550 -17725 -2331 -512885
832781719873783424 7183 -18017 -2352 -512846
832781719891994368 6973 -18267 -2377 -512910
832781719910205184 6899 -18352 -2274 -512890
832781719928416128 6828 -18432 -2340 -512918
832781719946626944 6844 -18423 -2389 -512967
832781719964837888 7027 -18252 -2341 -512823
832781719983048704 7274 -17957 -2366 -512894
832781720001259648 7398 -17824 -2360 -512907
832781720019470592 7587 -17564 -2344 -512892
832781720037681408 7812 -17336 -2301 -512851
832781720055892352 7963 -17231 -2227 -512880
832781720074103168 8145 -17092 -2264 -512902
832781720092314112 8250 -16980 -2320 -512902
832781720110525056 8332 -16940 -2268 -512876
832781720128735872 8334 -16913 -2308 -512889
832781720146946816 8387 -16849 -2253 -512794
832781720165157632 8363 -16780 -2315 -512862
832781720183368576 8362 -16824 -2336 -512839
832781720201579392 8387 -16787 -2306 -512838
832781720219790336 8471 -16754 -2331 -512862
832781720238001280 8618 -16585 -2303 -512859
832781720256212096 8774 -16403 -2350 -512878
832781720274423040 8983 -16218 -2309 -512906
832781720292633856 9199 -16046 -2364 -512889
832781720310844800 9412 -15865 -2382 -512825
832781720329055616 9626 -15571 -2306 -512858
832781720347266560 9791 -15457 -2338 -512946
832781720365477504 9911 -15300 -2367 -512930
832781720383688320 9941 -15294 -2374 -512940
832781720401899264 9794 -15396 -2380 -512914
832781720420110080 9566 -15618 -2329 -512927
832781720438321024 9294 -15919 -2349 -512873
832781720456531840 8849 -16310 -2284 -512892
832781720474742784 8463 -16761 -2277 -512920
832781720492953728 8033 -17159 -2286 -512903
832781720511164544 7849 -17357 -2274 -512827
832781720529375488 7439 -17773 -2277 -512842
832781720547586304 7149 -18025 -2309 -512816
832781720565797248 6937 -18212 -2317 -512877
832781720584008192 6913 -18309 -2361 -512881
832781720602219008 6820 -18401 -2366 -512926
832781720620429864 6916 -18348 -2304 -512933
832781720638640768 7061 -18218 -2343 -512896
832781720656851712 7212 -18021 -2412 -512897
832781720675062528 7394 -17793 -2325 -512948
832781720693273472 7539 -17633 -2421 -512927
832781720711484288 7811 -17420 -2358 -512858
832781720729695232 7971 -17229 -2334 -512880
832781720747906048 8173 -17106 -2374 -512884
832781720766116992 8339 -16948 -2333 -512824
832781720784327936 8296 -16938 -2320 -512890
832781720802538752 8299 -16885 -2302 -512830
832781720820749696 8315 -16814 -2282 -512847
832781720838960512 8395 -16867 -2302 -512829
832781720857171456 8403 -16741 -2275 -512844
832781720875382400 8511 -16713 -2244 -512818
832781720893593216 8569 -16632 -2307 -512792
832781720911804160 8652 -16555 -2311 -512878
832781720930014976 8869 -16350 -2353 -512818
832781720948225920 9113 -16133 -2301 -512811
832781720966436736 9386 -15920 -2320 -512833
832781720984647680 9615 -15647 -2275 -512850
832781721002858624 9750 -15397 -2259 -512836
832781721021069440 10081 -15183 -2311 -512841
832781721039280384 10080 -15151 -2256 -512823
832781721057491200 9942 -15276 -2275 -512872
832781721075702144 9698 -15465 -2345 -512889
832781721093912960 9494 -15774 -2302 -512824
832781721112123904 9089 -16013 -2291 -512859
832781721130334848 8680 -16478 -2324 -512881
832781721148545664 8317 -16862 -2297 -512825
832781721166756608 7962 -17240 -2333 -512862
832781721184967424 7615 -17625 -2294 -512842
832781721203178368 7276 -17932 -2270 -512892
832781721221389184 6981 -18130 -2300 -512893
832781721239600128 6894 -18304 -2297 -512845
832781721257811072 6861 -18267 -2251 -512830
832781721276021888 6883 -18311 -2312 -512855
832781721294232832 7031 -18230 -2335 -512862
832781721312443648 7173 -18028 -2270 -512829
832781721330654592 7380 -17869 -2333 -512814
832781721348865536 7586 -17649 -2297 -512837
832781721367076352 7826 -17408 -2230 -512790
832781721385287238 7951 -17226 -2293 -512836
832781721403497856 8114 -17142 -2351 -512824
832781721421708416 8190 -16998 -2389 -512850
832781721439918848 8304 -16899 -2289 -512879
832781721458129408 8363 -16907 -2301 -512902
832781721476339968 8351 -16844 -2283 -512830
832781721494550528 8423 -16860 -2282 -512846
832781721512760960 8350 -16866 -2311 -512850
832781721530971520 8425 -16744 -2264 -512870
832781721549182080 8459 -16753 -2324 -512898
832781721567392640 8601 -16602 -2285 -512797
832781721585603072 8774 -16481 -2281 -512827
832781721603813632 8977 -16238 -2316 -512797
832781721622024192 9166 -15992 -2298 -512872
832781721640234752 9397 -15705 -2334 -512869
832781721658445184 9641 -15571 -2332 -512878
832781721676655744 9852 -15331 -2278 -512843
832781721694866304 9880 -15260 -2296 -512890
832781721713076864 9930 -15208 -2333 -512871
832781721731287296 9831 -15382 -2296 -512886
832781721749497856 9613 -15637 -2317 -512868
832781721767708416 9271 -15895 -2295 -512918
832781721785918976 8978 -16188 -2286 -512823
832781721804129408 8641 -16568 -2272 -512830
832781721822339968 8184 -17025 -2291 -512873
832781721840550528 7833 -17417 -2306 -512882
832781721858760960 7481 -17727 -2318 -512884
832781721876971520 7160 -18003 -2346 -512885
832781721895182080 7007 -18148 -2328 -512870
832781721913392640 6883 -18316 -2313 -512855
832781721931603072 6916 -18294 -2314 -512834
832781721949813632 6920 -18267 -2264 -512847
832781721968024192 7145 -18042 -2285 -512863
832781721986234752 7279 -17978 -2321 -512851
832781722004445184 7395 -17795 -2338 -512853
832781722022655744 7577 -17589 -2291 -512877
832781722040866304 7781 -17399 -2259 -512887
832781722059076864 7942 -17194 -2340 -512905
832781722077287296 8135 -17046 -2312 -512897
832781722095497856 8300 -16987 -2338 -512872
832781722113708416 8277 -16908 -2334 -512848
832781722131918976 8367 -16839 -2314 -512847
832781722150129352 8402 -16821 -2330 -512826
832781722168340608 8370 -16860 -2281 -512868
832781722186551808 8448 -16801 -2233 -512837
832781722204763136 8476 -16780 -2333 -512903
832781722222974336 8553 -16671 -2270 -512895
832781722241185664 8646 -16556 -2249 -512858
832781722259396864 8862 -16374 -2228 -512827
832781722277608064 9104 -16129 -2287 -512809
832781722295819392 9288 -15950 -2366 -512843
832781722314030592 9513 -15719 -2366 -512834
832781722332241920 9704 -15509 -2334 -512814
832781722350453120 9842 -15353 -2379 -512831
832781722368664448 9914 -15231 -2337 -512833
832781722386875648 9910 -15298 -2307 -512839
832781722405086848 9745 -15502 -2334 -512848
832781722423298176 9441 -15694 -2302 -512852
832781722441509376 9182 -15994 -2257 -512862
832781722459720704 8756 -16441 -2364 -512890
832781722477931904 8346 -16786 -2348 -512894
832781722496143104 8009 -17168 -2258 -512830
832781722514354432 7657 -17507 -2345 -512905
832781722532565632 7367 -17793 -2308 -512844
832781722550776960 7072 -18121 -2286 -512852
832781722568988160 6897 -18307 -2359 -512888
832781722587199488 6827 -18382 -2364 -512910
832781722605410688 6931 -18354 -2285 -512889
832781722623621888 6891 -18218 -2329 -512942
832781722641833216 7084 -18078 -2308 -512903
832781722660044416 7252 -17938 -2344 -512933
832781722678255744 7486 -17750 -2323 -512904
832781722696466944 7783 -17526 -2324 -512875
832781722714678144 7859 -17299 -2320 -512894
832781722732889472 8082 -17144 -2274 -512842
832781722751100672 8161 -16972 -2283 -512826
832781722769312000 8267 -16891 -2276 -512879
832781722787523200 8348 -16832 -2300 -512859
832781722805734528 8327 -16801 -2406 -512909
832781722823945728 8406 -16814 -2329 -512895
832781722842156928 8426 -16836 -2338 -512863
832781722860368256 8445 -16779 -2320 -512897
832781722878579456 8503 -16685 -2341 -512820
832781722896790784 8549 -16608 -2307 -512843
832781722915001986 8772 -16414 -2215 -512854
832781722933213568 8852 -16282 -2308 -512860
832781722951425152 9107 -16117 -2318 -512864
832781722969636864 9374 -15815 -2287 -512842
832781722987848448 9578 -15713 -2281 -512872
832781723006060032 9799 -15488 -2278 -512858
832781723024271616 9931 -15335 -2346 -512873
832781723042483328 9932 -15330 -2282 -512869
832781723060694912 9874 -15349 -2316 -512859
832781723078906496 9720 -15559 -2282 -512920
832781723097118080 9426 -15762 -2280 -512907
832781723115329792 9085 -16119 -2275 -512873
832781723133541376 8708 -16492 -2261 -512830
832781723151752960 8293 -16944 -2264 -512841
832781723169964544 7900 -17358 -2294 -512872
832781723188176256 7524 -17692 -2296 -512884
832781723206387840 7183 -18009 -2303 -512870
832781723224599424 6988 -18160 -2304 -512845
832781723242811008 6961 -18328 -2279 -512820
832781723261022720 6903 -18399 -2296 -512856
832781723279234304 6908 -18340 -2307 -512856
832781723297445888 6992 -18223 -2348 -512870
832781723315657472 7211 -18047 -2298 -512844
832781723333869184 7342 -17841 -2308 -512856
832781723352080768 7530 -17569 -2300 -512811
832781723370292352 7757 -17492 -2300 -512840
832781723388503936 7987 -17288 -2312 -512845
832781723406715648 8162 -17120 -2324 -512850
832781723424927232 8231 -17007 -2327 -512847
832781723443138816 8341 -16905 -2338 -512912
832781723461350400 8358 -16954 -2346 -512872
832781723479562112 8374 -16863 -2302 -512901
832781723497773696 8340 -16841 -2306 -512904
832781723515985280 8407 -16753 -2245 -512824
832781723534196864 8425 -16772 -2354 -512886
832781723552408576 8537 -16675 -2295 -512928
832781723570620160 8665 -16584 -2331 -512889
832781723588831744 8776 -16462 -2396 -512936
832781723607043328 8988 -16214 -2353 -512870
832781723625255040 9186 -15960 -2314 -512861
832781723643466624 9409 -15719 -2327 -512885
832781723661678208 9668 -15534 -2397 -512850
832781723679889878 9879 -15369 -2376 -512847
832781723698101504 10011 -15232 -2320 -512842
832781723716313088 9948 -15275 -2351 -512865
832781723734524800 9829 -15400 -2299 -512875
832781723752736384 9575 -15645 -2276 -512860
832781723770947968 9290 -15929 -2250 -512904
832781723789159552 8881 -16272 -2293 -512867
832781723807371264 8538 -16685 -2225 -512831
832781723825582848 8122 -17037 -2247 -512861
832781723843794432 7742 -17412 -2297 -512892
832781723862006016 7366 -17785 -2333 -512942
832781723880217728 7124 -18055 -2375 -512915
832781723898429312 7004 -18276 -2337 -512880
832781723916640896 6864 -18371 -2358 -512919
832781723934852480 6796 -18415 -2393 -512961
832781723953064192 6951 -18290 -2318 -512927
832781723971275776 6979 -18147 -2346 -512908
832781723989487360 7159 -18030 -2377 -512881
832781724007698944 7428 -17757 -2334 -512878
832781724025910656 7644 -17431 -2310 -512878
832781724044122240 7900 -17274 -2302 -512855
832781724062333824 8037 -17110 -2283 -512870
832781724080545408 8107 -16990 -2351 -512877
832781724098757120 8218 -16990 -2327 -512871
832781724116968704 8277 -16917 -2334 -512890
832781724135180288 8330 -16837 -2323 -512891
832781724153391872 8357 -16862 -2294 -512907
832781724171603584 8438 -16855 -2291 -512905
832781724189815168 8418 -16813 -2384 -512921
832781724208026752 8438 -16805 -2317 -512870
832781724226238336 8528 -16676 -2299 -512944
832781724244450048 8691 -16505 -2272 -512858
832781724262661632 8834 -16358 -2312 -512910
832781724280873216 9116 -16085 -2263 -512860
832781724299084800 9323 -15883 -2292 -512870
832781724317296512 9579 -15655 -2241 -512850
832781724335508096 9776 -15497 -2303 -512914
832781724353719680 9881 -15330 -2330 -512881
832781724371931264 9904 -15287 -2353 -512909
832781724390142976 9892 -15374 -2336 -512852
832781724408354560 9694 -15582 -2377 -512865
832781724426566144 9413 -15679 -2343 -512871
832781724444777770 9167 -16060 -2314 -512878
832781724462989312 8759 -16428 -2342 -512824
832781724481200896 8352 -16860 -2366 -512881
832781724499412608 7970 -17261 -2320 -512870
832781724517624192 7628 -17567 -2281 -512854
832781724535835776 7420 -17761 -2313 -512908
832781724554047360 7159 -18092 -2274 -512874
832781724572259072 6946 -18273 -2310 -512922
832781724590470656 6878 -18370 -2308 -512879
832781724608682240 6988 -18273 -2208 -512831
832781724626893824 6976 -18184 -2301 -512874
832781724645105536 7130 -18057 -2293 -512916
832781724663317120 7317 -17814 -2274 -512861
832781724681528704 7439 -17658 -2337 -512890
832781724699740288 7719 -17443 -2267 -512877
832781724717952000 7913 -17287 -2299 -512855
832781724736163584 8114 -17085 -2304 -512856
832781724754375168 8207 -16986 -2366 -512877
832781724772586752 8209 -16889 -2366 -512875
832781724790798464 8344 -16834 -2313 -512857
832781724809010048 8268 -16839 -2335 -512941
832781724827221632 8299 -16860 -2331 -512913
832781724845433216 8318 -16802 -2342 -512890
832781724863644928 8371 -16767 -2350 -512891
832781724881856512 8430 -16697 -2277 -512882
832781724900068096 8535 -16615 -2309 -512811
832781724918279680 8770 -16486 -2310 -512844
832781724936491392 8937 -16302 -2258 -512890
832781724954702976 9184 -16047 -2296 -512937
832781724972914560 9380 -15847 -2311 -512903
832781724991126144 9613 -15616 -2280 -512897
832781725009337856 9806 -15431 -2364 -512938
832781725027549440 9886 -15326 -2328 -512911
832781725045761024 9885 -15282 -2329 -512876
832781725063972608 9768 -15405 -2311 -512887
832781725082184320 9613 -15652 -2328 -512854
832781725100395904 9325 -15871 -2337 -512895
832781725118607488 8932 -16234 -2340 -512902
832781725136819072 8540 -16674 -2363 -512946
832781725155030784 8148 -17063 -2348 -512874
832781725173242368 7811 -17413 -2327 -512895
832781725191453952 7414 -17726 -2323 -512916
832781725209665662 7167 -18006 -2362 -512880
832781725227877248 6976 -18151 -2338 -512891
832781725246088832 6821 -18349 -2332 -512924
832781725264300544 6797 -18410 -2346 -512852
832781725282512128 6870 -18305 -2359 -512876
832781725300723712 6961 -18192 -2370 -512891
832781725318935296 7177 -18016 -2369 -512873
832781725337147008 7392 -17813 -2301 -512833
832781725355358592 7631 -17595 -2297 -512888
832781725373570176 7818 -17362 -2281 -512821
832781725391781760 7983 -17242 -2250 -512864
832781725409993472 8141 -17082 -2277 -512874
832781725428205056 8235 -16963 -2261 -512876
832781725446416640 8271 -16905 -2284 -512923
832781725464628224 8403 -16851 -2326 -512905
832781725482839936 8330 -16884 -2330 -512912
832781725501051520 8366 -16843 -2257 -512848
832781725519263104 8367 -16843 -2310 -512856
832781725537474688 8428 -16807 -2316 -512886
832781725555686400 8460 -16687 -2341 -512929
832781725573897984 8652 -16511 -2299 -512868
832781725592109568 8793 -16386 -2324 -512892
832781725610321152 8983 -16200 -2349 -512906
832781725628532864 9259 -15922 -2287 -512916
832781725646744448 9437 -15756 -2355 -512879
832781725664956032 9684 -15551 -2312 -512914
832781725683167616 9811 -15410 -2331 -512896
832781725701379328 9898 -15278 -2366 -512861
832781725719590912 9925 -15309 -2326 -512884
832781725737802496 9768 -15509 -2321 -512873
832781725756014080 9547 -15668 -2229 -512886
832781725774225792 9141 -16078 -2409 -512979
832781725792437376 8809 -16421 -2348 -512929
832781725810648960 8364 -16802 -2359 -512911
832781725828860544 7994 -17163 -2360 -512891
832781725847072256 7653 -17545 -2338 -512889
832781725865283840 7309 -17870 -2358 -512931
832781725883495424 7053 -18143 -2336 -512916
832781725901707008 6919 -18222 -2306 -512876
832781725919918720 6784 -18342 -2372 -512896
832781725938130304 6825 -18381 -2333 -512895
832781725956341888 6898 -18319 -2353 -512858
832781725974553564 7076 -18074 -2333 -512809
832781725992765184 7242 -17913 -2353 -512860
832781726010976768 7394 -17738 -2341 -512936
832781726029188480 7649 -17520 -2308 -512909
832781726047400064 7880 -17351 -2245 -512889
832781726065611648 8047 -17131 -2298 -512885
832781726083823232 8197 -17003 -2342 -512853
832781726102034944 8276 -16966 -2369 -512889
832781726120246528 8387 -16824 -2350 -512836
832781726138458112 8381 -16833 -2348 -512868
832781726156669696 8364 -16923 -2335 -512847
832781726174881408 8379 -16869 -2358 -512881
832781726193092992 8395 -16841 -2308 -512899
832781726211304576 8432 -16719 -2310 -512899
832781726229516160 8574 -16665 -2293 -512865
832781726247727872 8745 -16505 -2233 -512831
832781726265939456 8947 -16303 -2214 -512891
832781726284151040 9142 -16086 -2316 -512865
832781726302362624 9300 -15775 -2277 -512842
832781726320574336 9481 -15595 -2319 -512914
832781726338785920 9728 -15424 -2331 -512865
832781726356997504 9874 -15275 -2335 -512892
832781726375209088 9865 -15266 -2367 -512935
832781726393420800 9882 -15297 -2303 -512901
832781726411632384 9614 -15509 -2357 -512897
832781726429843968 9384 -15846 -2362 -512847
832781726448055552 9044 -16200 -2353 -512847
832781726466267264 8617 -16644 -2308 -512921
832781726484478848 8216 -16975 -2367 -512950
832781726502690432 7877 -17316 -2295 -512878
832781726520902016 7524 -17768 -2348 -512928
832781726539113728 7225 -18035 -2396 -512939
832781726557325312 7009 -18231 -2343 -512858
832781726575536896 6911 -18285 -2350 -512892
832781726593748480 6816 -18357 -2374 -512907
832781726611960192 6868 -18402 -2325 -512873
832781726630171776 6922 -18240 -2316 -512929
832781726648383360 7141 -18080 -2327 -512929
832781726666594944 7313 -17920 -2367 -512903
832781726684806656 7536 -17725 -2348 -512921
832781726703018240 7738 -17505 -2345 -512864
832781726721229824 7902 -17259 -2350 -512903
832781726739441456 8081 -17100 -2292 -512898
832781726757653888 8169 -16987 -2324 -512890
832781726775866368 8236 -16946 -2348 -512884
832781726794078848 8337 -16891 -2368 -512914
832781726812291328 8404 -16844 -2342 -512812
832781726830503808 8347 -16885 -2381 -512884
832781726848716288 8338 -16861 -2343 -512895
832781726866928768 8484 -16772 -2321 -512819
832781726885141248 8499 -16698 -2329 -512888
832781726903353856 8627 -16652 -2326 -512839
832781726921566336 8772 -16482 -2309 -512890
832781726939778816 8963 -16288 -2400 -512863
832781726957991296 9206 -15987 -2348 -512864
832781726976203776 9442 -15795 -2379 -512893
832781726994416256 9694 -15501 -2323 -512875
832781727012628736 9857 -15402 -2317 -512890
832781727030841216 10138 -15116 -2320 -512928
832781727049053696 10053 -15274 -2313 -512879
832781727067266176 9823 -15400 -2311 -512887
832781727085478656 9526 -15637 -2364 -512923
832781727103691136 9257 -15918 -2336 -512906
832781727121903616 8935 -16311 -2348 -512921
832781727140116096 8549 -16624 -2329 -512870
832781727158328576 8142 -17084 -2340 -512852
832781727176541184 7763 -17479 -2323 -512852
832781727194753664 7368 -17838 -2293 -512882
832781727212966144 7105 -18128 -2354 -512913
832781727231178624 6915 -18254 -2345 -512889
832781727249391104 6815 -18370 -2326 -512891
832781727267603584 6850 -18353 -2336 -512894
832781727285816064 6890 -18334 -2350 -512971
832781727304028544 7113 -18120 -2308 -512938
832781727322241024 7221 -17972 -2336 -512896
832781727340453504 7439 -17808 -2348 -512878
832781727358665984 7640 -17590 -2311 -512889
832781727376878464 7835 -17410 -2293 -512914
832781727395090944 7943 -17179 -2386 -512939
832781727413303424 8181 -17037 -2325 -512829
832781727431515904 8271 -16960 -2334 -512865
832781727449728512 8347 -16898 -2316 -512852
832781727467940992 8338 -16805 -2306 -512889
832781727486153472 8317 -16920 -2316 -512924
832781727504365970 8321 -16805 -2338 -512891
832781727522578176 8423 -16800 -2269 -512893
832781727540790400 8438 -16809 -2400 -512916
832781727559002624 8486 -16751 -2419 -512915
832781727577214720 8612 -16551 -2406 -512979
832781727595426944 8848 -16345 -2363 -512920
832781727613639168 9044 -16168 -2326 -512899
832781727631851392 9218 -15987 -2327 -512911
832781727650063616 9523 -15632 -2324 -512838
832781727668275712 9719 -15499 -2351 -512845
832781727686487936 9858 -15332 -2347 -512878
832781727704700160 9899 -15258 -2341 -512895
832781727722912384 9909 -15294 -2353 -512897
832781727741124608 9776 -15483 -2336 -512929
832781727759336704 9530 -15770 -2367 -512880
832781727777548928 9126 -16130 -2380 -512888
832781727795761152 8770 -16440 -2347 -512903
832781727813973376 8338 -16861 -2318 -512923
832781727832185600 8002 -17199 -2248 -512904
832781727850397696 7615 -17595 -2289 -512863
832781727868609920 7324 -17882 -2300 -512894
832781727886822144 7038 -18133 -2347 -512878
832781727905034368 6884 -18294 -2312 -512840
832781727923246464 6965 -18318 -2333 -512868
832781727941458688 6964 -18339 -2320 -512881
832781727959670912 6963 -18214 -2300 -512838
832781727977883136 7099 -18066 -2249 -512791
832781727996095360 7441 -17797 -2284 -512794
832781728014307456 7568 -17702 -2359 -512893
832781728032519680 7751 -17477 -2313 -512876
832781728050731904 7939 -17274 -2308 -512848
832781728068944128 8095 -17210 -2364 -512905
832781728087156352 8281 -16949 -2361 -512874
832781728105368448 8337 -16880 -2317 -512901
832781728123580672 8381 -16875 -2316 -512876
832781728141792896 8434 -16865 -2279 -512908
832781728160005120 8375 -16889 -2349 -512922
832781728178217344 8395 -16865 -2333 -512919
832781728196429440 8439 -16794 -2334 -512966
832781728214641664 8457 -16746 -2367 -512981
832781728232853888 8599 -16588 -2294 -512949
832781728251066112 8731 -16454 -2286 -512922
832781728269278276 8928 -16285 -2307 -512933
832781728287489024 9163 -16017 -2275 -512857
832781728305699712 9390 -15820 -2306 -512881
832781728323910528 9636 -15591 -2242 -512861
832781728342121216 9768 -15390 -2266 -512896
832781728360332032 9910 -15219 -2253 -512886
832781728378542720 9950 -15227 -2265 -512884
832781728396753536 9814 -15386 -2297 -512844
832781728414964224 9637 -15517 -2290 -512889
832781728433175040 9295 -15864 -2349 -512922
832781728451385728 8918 -16213 -2319 -512922
832781728469596416 8559 -16624 -2316 -512902
832781728487807232 8252 -16976 -2267 -512879
832781728506017920 7776 -17421 -2361 -512916
832781728524228736 7478 -17717 -2314 -512875
832781728542439424 7255 -17953 -2321 -512860
832781728560650240 6985 -18116 -2296 -512819
832781728578860928 6861 -18335 -2368 -512923
832781728597071744 6835 -18348 -2325 -512890
832781728615282432 6888 -18294 -2314 -512903
832781728633493120 7058 -18226 -2303 -512904
832781728651703936 7226 -17931 -2240 -512875
832781728669914624 7415 -17765 -2332 -512895
832781728688125440 7560 -17591 -2306 -512939
832781728706336128 7731 -17453 -2361 -512910
832781728724546944 8004 -17270 -2276 -512851
832781728742757632 8119 -17072 -2327 -512891
832781728760968320 8246 -16978 -2320 -512932
832781728779179136 8312 -16885 -2319 -512871
832781728797389824 8368 -16806 -2368 -512863
832781728815600640 8340 -16788 -2374 -512882
832781728833811328 8352 -16767 -2360 -512907
832781728852022144 8436 -16782 -2353 -512867
832781728870232832 8429 -16795 -2320 -512959
832781728888443648 8580 -16690 -2300 -512859
832781728906654336 8626 -16558 -2364 -512865
832781728924865024 8850 -16383 -2364 -512855
832781728943075840 9044 -16200 -2399 -512901
832781728961286528 9223 -15983 -2331 -512886
832781728979497344 9489 -15710 -2283 -512833
832781728997708032 9716 -15568 -2365 -512876
832781729015918848 10020 -15203 -2392 -512910
832781729034129548 9989 -15203 -2353 -512913
832781729052342784 9950 -15223 -2352 -512902
832781729070556032 9797 -15438 -2266 -512885
832781729088769152 9528 -15696 -2297 -512953
832781729106982400 9226 -16010 -2277 -512921
832781729125195648 8809 -16401 -2310 -512912
832781729143408896 8446 -16811 -2310 -512888
832781729161622016 8051 -17190 -2336 -512901
832781729179835264 7690 -17489 -2281 -512894
832781729198048512 7373 -17858 -2270 -512889
832781729216261760 7106 -18132 -2302 -512904
832781729234474880 6962 -18303 -2304 -512876
832781729252688128 6872 -18309 -2355 -512896
832781729270901376 6852 -18342 -2350 -512930
832781729289114624 6989 -18217 -2334 -512839
832781729307327744 7120 -18113 -2293 -512861
832781729325540992 7282 -17977 -2303 -512851
832781729343754240 7397 -17775 -2290 -512880
832781729361967488 7648 -17519 -2349 -512895
832781729380180608 7795 -17316 -2351 -512942
832781729398393856 8027 -17140 -2319 -512916
832781729416607104 8185 -17007 -2314 -512886
832781729434820352 8284 -16961 -2293 -512886
832781729453033472 8311 -16837 -2318 -512838
832781729471246720 8401 -16852 -2242 -512843
832781729489459968 8404 -16818 -2266 -512858
832781729507673216 8371 -16822 -2314 -512853
832781729525886336 8495 -16646 -2327 -512946
832781729544099584 8505 -16649 -2341 -512869
832781729562312832 8541 -16627 -2416 -512967
832781729580526080 8704 -16390 -2259 -512850
832781729598739200 8865 -16327 -2335 -512841
832781729616952448 9029 -16030 -2306 -512856
832781729635165696 9312 -15834 -2287 -512890
832781729653378816 9565 -15574 -2294 -512884
832781729671592064 9729 -15478 -2269 -512838
832781729689805312 9818 -15269 -2295 -512884
832781729708018560 9853 -15328 -2302 -512926
832781729726231680 9850 -15347 -2289 -512913
832781729744444928 9648 -15536 -2284 -512873
832781729762658176 9381 -15827 -2351 -512914
832781729780871424 9053 -16157 -2352 -512906
832781729799084578 8702 -16496 -2285 -512905
832781729817296896 8237 -16918 -2279 -512907
832781729835509248 7849 -17276 -2313 -512903
832781729853721600 7563 -17699 -2325 -512931
832781729871933952 7257 -17930 -2333 -512959
832781729890146304 7030 -18153 -2295 -512911
832781729908358656 6904 -18313 -2306 -512898
832781729926571008 6854 -18366 -2284 -512901
832781729944783360 6908 -18305 -2317 -512867
832781729962995584 7009 -18187 -2384 -512947
832781729981207936 7203 -17925 -2299 -512842
832781729999420288 7377 -17839 -2269 -512834
832781730017632640 7560 -17615 -2289 -512852
832781730035844992 7726 -17377 -2347 -512880
832781730054057344 7917 -17239 -2342 -512882
832781730072269696 8126 -17088 -2317 -512838
832781730090482048 8213 -17011 -2336 -512904
832781730108694400 8294 -16865 -2342 -512903
832781730126906752 8328 -16868 -2351 -512919
832781730145119104 8367 -16838 -2359 -512938
832781730163331456 8340 -16872 -2382 -512932
832781730181543808 8397 -16789 -2320 -512933
832781730199756160 8423 -16763 -2341 -512940
832781730217968384 8546 -16690 -2318 -512929
832781730236180736 8647 -16558 -2314 -512911
832781730254393088 8773 -16383 -2291 -512895
832781730272605440 8960 -16202 -2269 -512890
832781730290817792 9221 -15940 -2265 -512887
832781730309030144 9412 -15698 -2280 -512911
832781730327242496 9593 -15500 -2292 -512876
832781730345454848 9850 -15430 -2298 -512891
832781730363667200 9926 -15254 -2347 -512835
832781730381879552 9892 -15258 -2316 -512841
832781730400091904 9783 -15423 -2294 -512889
832781730418304256 9606 -15622 -2337 -512895
832781730436516608 9220 -15984 -2338 -512948
832781730454728960 8928 -16271 -2328 -512879
832781730472941184 8573 -16709 -2331 -512945
832781730491153536 8254 -16981 -2337 -512957
832781730509365888 7822 -17374 -2332 -512850
832781730527578240 7435 -17732 -2316 -512920
832781730545790592 7163 -18004 -2260 -512923
832781730564002988 7012 -18266 -2338 -512881
832781730582215296 6867 -18334 -2304 -512889
832781730600427648 6838 -18312 -2345 -512902
832781730618640000 6900 -18326 -2327 -512937
832781730636852352 7037 -18201 -2311 -512896
832781730655064704 7211 -17999 -2282 -512899
832781730673277056 7389 -17838 -2368 -512931
832781730691489408 7657 -17538 -2309 -512886
832781730709701760 7825 -17386 -2342 -512881
832781730727913984 8032 -17138 -2285 -512904
832781730746126336 8122 -17073 -2350 -512940
832781730764338688 8205 -16987 -2337 -512942
832781730782551040 8328 -16933 -2348 -512933
832781730800763392 8388 -16826 -2307 -512928
832781730818975744 8373 -16867 -2297 -512875
832781730837188096 8415 -16832 -2283 -512845
832781730855400448 8400 -16783 -2308 -512907
832781730873612800 8492 -16737 -2344 -512921
832781730891825152 8579 -16707 -2263 -512914
832781730910037504 8675 -16515 -2320 -512898
832781730928249856 8805 -16342 -2287 -512908
832781730946462208 9079 -16123 -2294 -512879
832781730964674560 9299 -15896 -2302 -512912
832781730982886784 9539 -15627 -2295 -512842
832781731001099136 9712 -15431 -2241 -512820
832781731019311488 9874 -15351 -2275 -512858
832781731037523840 10023 -15212 -2284 -512839
832781731055736192 9944 -15311 -2297 -512916
832781731073948544 9814 -15492 -2281 -512946
832781731092160896 9521 -15693 -2224 -512882
832781731110373248 9294 -16029 -2223 -512806
832781731128585600 8839 -16408 -2268 -512885
832781731146797952 8397 -16804 -2285 -512926
832781731165010304 7997 -17211 -2332 -512903
832781731183222656 7582 -17598 -2403 -512957
832781731201435008 7356 -17855 -2336 -512831
832781731219647360 7093 -18148 -2307 -512879
832781731237859584 6919 -18289 -2365 -512901
832781731256071936 6844 -18374 -2323 -512905
832781731274284288 6895 -18338 -2332 -512913
832781731292496640 6944 -18274 -2381 -512950
832781731310708992 7085 -18095 -2360 -512914
832781731328921398 7286 -17844 -2346 -512886
832781731347132928 7547 -17682 -2341 -512860
832781731365344512 7751 -17455 -2253 -512882
832781731383556224 7857 -17342 -2334 -512929
832781731401767808 8082 -17143 -2301 -512882
832781731419979392 8174 -16966 -2345 -512890
832781731438190976 8259 -16941 -2327 -512894
832781731456402688 8336 -16894 -2295 -512901
832781731474614272 8290 -16883 -2304 -512877
832781731492825856 8327 -16815 -2278 -512860
832781731511037440 8560 -16714 -2279 -512895
832781731529249152 8505 -16764 -2319 -512912
832781731547460736 8523 -16704 -2324 -512878
832781731565672320 8647 -16669 -2306 -512852
832781731583883904 8789 -16424 -2314 -512871
832781731602095616 8992 -16290 -2364 -512847
832781731620307200 9170 -16071 -2346 -512888
832781731638518784 9401 -15873 -2347 -512910
832781731656730368 9535 -15609 -2327 -512928
832781731674942080 9759 -15466 -2383 -512894
832781731693153664 9909 -15268 -2345 -512889
832781731711365248 9902 -15277 -2387 -512957
832781731729576832 9835 -15380 -2355 -512913
832781731747788544 9679 -15543 -2364 -512852
832781731766000128 9367 -15900 -2256 -512890
832781731784211712 8975 -16223 -2280 -512902
832781731802423296 8579 -16593 -2282 -512929
832781731820635008 8230 -16985 -2287 -512867
832781731838846592 7832 -17329 -2332 -512904
832781731857058176 7526 -17692 -2275 -512911
832781731875269760 7183 -18029 -2266 -512884
832781731893481472 6956 -18266 -2345 -512955
832781731911693056 6822 -18328 -2299 -512913
832781731929904640 6830 -18372 -2328 -512888
832781731948116224 6867 -18329 -2315 -512847
832781731966327936 7006 -18199 -2309 -512908
832781731984539520 7187 -18035 -2299 -512863
832781732002751104 7394 -17809 -2348 -512897
832781732020962688 7638 -17571 -2318 -512903
832781732039174400 7809 -17411 -2355 -512929
832781732057385984 8012 -17256 -2370 -512879
832781732075597568 8119 -17087 -2361 -512915
832781732093809290 8192 -16999 -2335 -512947
832781732112020224 8319 -16898 -2280 -512910
832781732130231168 8364 -16850 -2284 -512939
832781732148442112 8350 -16843 -2328 -512926
832781732166653056 8377 -16892 -2335 -512879
832781732184864128 8436 -16871 -2314 -512891
832781732203075072 8451 -16721 -2278 -512973
832781732221286016 8525 -16596 -2308 -512865
832781732239496960 8692 -16487 -2342 -512870
832781732257707904 8807 -16355 -2308 -512889
832781732275918848 8996 -16175 -2308 -512913
832781732294129792 9236 -15974 -2376 -512878
832781732312340864 9523 -15734 -2345 -512940
832781732330551808 9721 -15503 -2331 -512936
832781732348762752 9811 -15328 -2350 -512973
832781732366973696 9934 -15226 -2309 -512937
832781732385184640 9953 -15206 -2307 -512868
832781732403395584 9759 -15399 -2320 -512862
832781732421606528 9482 -15675 -2306 -512908
832781732439817600 9211 -16042 -2309 -512911
832781732458028544 8904 -16357 -2306 -512894
832781732476239488 8489 -16737 -2340 -512925
832781732494450432 7999 -17125 -2362 -512944
832781732512661376 7658 -17499 -2354 -512892
832781732530872320 7346 -17820 -2369 -512940
832781732549083264 7188 -18046 -2313 -512902
832781732567294336 6955 -18263 -2329 -512947
832781732585505280 6862 -18366 -2331 -512909
832781732603716224 6857 -18350 -2334 -512885
832781732621927168 6878 -18335 -2352 -512944
832781732640138112 7030 -18141 -2353 -512887
832781732658349056 7206 -17938 -2335 -512890
832781732676560000 7463 -17758 -2352 -512868
832781732694771072 7665 -17545 -2345 -512881
832781732712982016 7907 -17338 -2278 -512857
832781732731192960 8078 -17163 -2300 -512864
832781732749403904 8219 -17018 -2338 -512898
832781732767614848 8282 -16929 -2316 -512892
832781732785825792 8300 -16838 -2348 -512870
832781732804036736 8344 -16890 -2337 -512892
832781732822247808 8344 -16838 -2383 -512904
832781732840458752 8355 -16857 -2369 -512872
832781732858669714 8411 -16799 -2315 -512901
832781732876879104 8459 -16722 -2268 -512861
832781732895088512 8602 -16644 -2273 -512905
832781732913297792 8753 -16474 -2275 -512881
832781732931507200 8903 -16324 -2350 -512927
832781732949716608 9077 -16141 -2333 -512863
832781732967925888 9330 -15854 -2275 -512896
832781732986135296 9749 -15502 -2283 -512908
832781733004344704 9882 -15399 -2258 -512899
832781733022553984 9998 -15317 -2296 -512914
832781733040763392 10054 -15214 -2295 -512885
832781733058972800 9900 -15271 -2307 -512896
832781733077182080 9739 -15445 -2287 -512868
832781733095391488 9408 -15759 -2289 -512884
832781733113600896 9056 -16135 -2302 -512867
832781733131810176 8671 -16524 -2344 -512888
832781733150019584 8331 -16936 -2293 -512894
832781733168228992 7860 -17315 -2299 -512933
832781733186438272 7521 -17676 -2320 -512928
832781733204647680 7258 -18007 -2349 -512935
832781733222857088 7060 -18170 -2296 -512861
832781733241066368 6969 -18313 -2278 -512908
832781733259275776 6872 -18321 -2317 -512911
832781733277485056 6918 -18267 -2299 -512869
832781733295694464 7022 -18214 -2340 -512886
832781733313903872 7169 -18056 -2330 -512939
832781733332113152 7367 -17853 -2251 -512931
832781733350322560 7680 -17604 -2278 -512824
832781733368531968 7812 -17441 -2267 -512893
832781733386741248 7966 -17255 -2300 -512898
832781733404950656 8088 -17066 -2298 -512873
832781733423160064 8270 -16920 -2281 -512853
832781733441369344 8356 -16844 -2312 -512904
832781733459578752 8372 -16813 -2273 -512844
832781733477788160 8379 -16809 -2274 -512861
832781733495997440 8486 -16759 -2336 -512902
832781733514206848 8478 -16726 -2277 -512923
832781733532416256 8465 -16745 -2385 -512886
832781733550625536 8557 -16649 -2296 -512821
832781733568834944 8650 -16592 -2298 -512853
832781733587044352 8775 -16392 -2251 -512875
832781733605253632 8986 -16223 -2299 -512873
832781733623463012 9184 -16048 -2293 -512881
832781733641673984 9443 -15806 -2270 -512902
832781733659884928 9686 -15556 -2252 -512891
832781733678095872 9789 -15373 -2275 -512927
832781733696306816 10005 -15222 -2321 -512872
832781733714517888 9959 -15214 -2342 -512852
832781733732728832 9779 -15406 -2326 -512856
832781733750939776 9657 -15591 -2347 -512869
832781733769150720 9283 -15867 -2292 -512884
832781733787361664 8924 -16192 -2277 -512852
832781733805572608 8558 -16607 -2313 -512812
832781733823783552 8215 -17025 -2294 -512863
832781733841994624 7820 -17416 -2276 -512868
832781733860205568 7457 -17792 -2343 -512885
832781733878416512 7206 -18007 -2309 -512868
832781733896627456 7009 -18234 -2320 -512891
832781733914838400 6845 -18324 -2284 -512953
832781733933049344 6822 -18291 -2278 -512872
832781733951260288 6931 -18222 -2306 -512874
832781733969471360 7117 -18171 -2282 -512895
832781733987682304 7257 -17996 -2299 -512910
832781734005893248 7457 -17731 -2302 -512899
832781734024104192 7663 -17522 -2340 -512902
832781734042315136 7817 -17346 -2277 -512913
832781734060526080 8073 -17165 -2336 -512897
832781734078737024 8194 -17080 -2293 -512904
832781734096948096 8262 -16908 -2311 -512916
832781734115159040 8360 -16884 -2313 -512958
832781734133369984 8367 -16926 -2348 -512911
832781734151580928 8292 -16866 -2341 -512896
832781734169791872 8366 -16867 -2301 -512911
832781734188002816 8401 -16748 -2248 -512887
832781734206213760 8440 -16687 -2207 -512915
832781734224424832 8531 -16676 -2342 -512941
832781734242635776 8702 -16481 -2295 -512902
832781734260846720 8882 -16352 -2312 -512865
832781734279057664 9052 -16140 -2280 -512895
832781734297268608 9244 -15979 -2367 -512930
832781734315479552 9541 -15674 -2267 -512830
832781734333690496 9748 -15488 -2267 -512894
832781734351901568 9898 -15327 -2294 -512901
832781734370112512 9908 -15245 -2317 -512893
832781734388323438 9911 -15276 -2332 -512862
832781734406535680 9783 -15479 -2291 -512877
832781734424747904 9532 -15700 -2226 -512841
832781734442960256 9113 -16021 -2292 -512939
832781734461172480 8827 -16373 -2214 -512894
832781734479384704 8471 -16708 -2213 -512915
832781734497597056 8025 -17150 -2284 -512924
832781734515809280 7777 -17383 -2279 -512884
832781734534021632 7425 -17794 -2278 -512872
832781734552233856 7132 -18065 -2286 -512854
832781734570446080 6920 -18244 -2281 -512909
832781734588658432 6853 -18334 -2303 -512912
832781734606870656 6867 -18315 -2310 -512911
832781734625082880 6946 -18216 -2343 -512931
832781734643295232 7149 -18069 -2247 -512902
832781734661507456 7341 -17878 -2284 -512868
832781734679719680 7525 -17693 -2325 -512910
832781734697932032 7721 -17485 -2330 -512882
832781734716144256 7936 -17312 -2290 -512914
832781734734356608 8104 -17080 -2317 -512882
832781734752568832 8242 -16956 -2336 -512914
832781734770781056 8351 -16863 -2303 -512848
832781734788993408 8366 -16894 -2286 -512880
832781734807205632 8371 -16900 -2289 -512877
832781734825417856 8418 -16839 -2311 -512894
832781734843630208 8345 -16833 -2343 -512879
832781734861842432 8446 -16772 -2292 -512871
832781734880054656 8505 -16707 -2279 -512829
832781734898267008 8645 -16589 -2286 -512848
832781734916479232 8738 -16457 -2313 -512872
832781734934691584 8968 -16269 -2335 -512876
832781734952903808 9202 -16065 -2304 -512864
832781734971116032 9401 -15783 -2282 -512829
832781734989328384 9620 -15604 -2303 -512884
832781735007540608 9838 -15455 -2295 -512879
832781735025752832 10109 -15157 -2309 -512874
832781735043965184 10033 -15197 -2298 -512910
832781735062177408 9876 -15299 -2340 -512916
832781735080389632 9714 -15482 -2269 -512850
832781735098601984 9407 -15794 -2284 -512850
832781735116814208 9033 -16151 -2262 -512844
832781735135026560 8705 -16499 -2246 -512834
832781735153238796 8315 -16933 -2251 -512853
832781735171450240 7833 -17346 -2316 -512856
832781735189661696 7556 -17652 -2264 -512841
832781735207873024 7326 -17948 -2249 -512843
832781735226084480 7076 -18123 -2244 -512898
832781735244295808 6895 -18303 -2310 -512894
832781735262507264 6838 -18398 -2304 -512899
832781735280718592 6945 -18269 -2287 -512884
832781735298930048 7017 -18188 -2290 -512889
832781735317141376 7196 -18069 -2326 -512930
832781735335352832 7410 -17776 -2255 -512831
832781735353564288 7592 -17596 -2302 -512843
832781735371775616 7857 -17394 -2277 -512865
832781735389987072 8046 -17216 -2326 -512859
832781735408198400 8186 -17035 -2252 -512813
832781735426409856 8290 -16943 -2258 -512851
832781735444621184 8425 -16837 -2205 -512826
832781735462832640 8395 -16861 -2304 -512871
832781735481043968 8537 -16642 -2291 -512843
832781735499255424 8500 -16801 -2303 -512825
832781735517466752 8443 -16778 -2307 -512850
832781735535678208 8484 -16734 -2257 -512823
832781735553889664 8601 -16674 -2278 -512831
832781735572100992 8687 -16534 -2282 -512840
832781735590312448 8788 -16388 -2345 -512855
832781735608523776 8991 -16182 -2311 -512867
832781735626735232 9253 -15980 -2347 -512918
832781735644946560 9524 -15721 -2304 -512843
832781735663158016 9725 -15502 -2286 -512834
832781735681369344 9880 -15294 -2211 -512843
832781735699580800 9990 -15196 -2266 -512841
832781735717792256 9972 -15267 -2296 -512882
832781735736003584 9854 -15371 -2234 -512886
832781735754215040 9570 -15618 -2280 -512909
832781735772426368 9226 -15909 -2299 -512863
832781735790637824 8908 -16261 -2312 -512884
832781735808849152 8488 -16731 -2287 -512838
832781735827060608 8088 -17088 -2328 -512916
832781735845271936 7714 -17499 -2299 -512821
832781735863483392 7433 -17730 -2204 -512833
832781735881694720 7171 -18044 -2194 -512812
832781735899906176 6995 -18240 -2329 -512856
832781735918117532 6848 -18329 -2353 -512876
832781735936328960 6919 -18381 -2330 -512858
832781735954540416 7008 -18267 -2304 -512864
832781735972751744 7153 -18073 -2260 -512816
832781735990963200 7413 -17823 -2302 -512848
832781736009174528 7568 -17648 -2213 -512826
832781736027385984 7691 -17523 -2255 -512839
832781736045597312 7865 -17367 -2269 -512878
832781736063808768 8123 -17114 -2240 -512860
832781736082020096 8264 -16998 -2270 -512800
832781736100231552 8327 -16882 -2294 -512802
832781736118443008 8357 -16830 -2290 -512852
832781736136654336 8396 -16756 -2295 -512790
832781736154865792 8423 -16764 -2258 -512808
832781736173077120 8418 -16744 -2183 -512807
832781736191288576 8378 -16734 -2279 -512842
832781736209499904 8458 -16671 -2253 -512878
832781736227711360 8532 -16657 -2314 -512916
832781736245922688 8674 -16477 -2263 -512872
832781736264134144 8980 -16275 -2236 -512848
832781736282345472 9196 -16064 -2240 -512843
832781736300556928 9385 -15845 -2275 -512894
832781736318768384 9602 -15608 -2323 -512886
832781736336979712 9780 -15464 -2312 -512895
832781736355191168 9970 -15252 -2278 -512838
832781736373402496 10063 -15173 -2239 -512821
832781736391613952 9936 -15228 -2264 -512811
832781736409825280 9743 -15351 -2244 -512842
832781736428036736 9584 -15740 -2279 -512766
832781736446248064 9189 -16029 -2235 -512799
832781736464459520 8727 -16459 -2296 -512867
832781736482670976 8341 -16875 -2269 -512839
832781736500882304 8004 -17136 -2267 -512857
832781736519093760 7656 -17571 -2235 -512876
832781736537305088 7317 -17861 -2308 -512842
832781736555516544 7054 -18125 -2279 -512856
832781736573727872 6913 -18257 -2297 -512936
832781736591939328 6905 -18389 -2346 -512932
832781736610150656 6906 -18279 -2308 -512903
832781736628362112 6966 -18170 -2310 -512885
832781736646573440 7135 -18016 -2313 -512928
832781736664784896 7363 -17845 -2223 -512877
832781736682996270 7535 -17632 -2249 -512890
832781736701208576 7784 -17440 -2249 -512903
832781736719420928 7959 -17185 -2272 -512875
832781736737633408 8109 -17089 -2299 -512827
832781736755845760 8266 -16954 -2293 -512850
832781736774058240 8363 -16875 -2266 -512862
832781736792270592 8348 -16860 -2286 -512884
832781736810483072 8367 -16856 -2312 -512896
832781736828695424 8430 -16741 -2264 -512851
832781736846907904 8428 -16772 -2248 -512891
832781736865120256 8517 -16763 -2264 -512853
832781736883332736 8566 -16736 -2257 -512860
832781736901545088 8616 -16574 -2291 -512872
832781736919757568 8794 -16422 -2297 -512867
832781736937969920 9000 -16187 -2258 -512816
832781736956182400 9252 -15977 -2236 -512862
832781736974394752 9461 -15754 -2297 -512847
832781736992607232 9723 -15575 -2289 -512812
832781737010819584 10069 -15283 -2285 -512825
832781737029032064 9977 -15217 -2285 -512876
832781737047244416 9972 -15184 -2270 -512872
832781737065456896 9835 -15345 -2230 -512892
832781737083669248 9679 -15483 -2258 -512894
832781737101881728 9360 -15788 -2263 -512872
832781737120094080 9020 -16185 -2255 -512853
832781737138306560 8608 -16598 -2269 -512869
832781737156518912 8219 -17008 -2258 -512867
832781737174731392 7810 -17336 -2280 -512852
832781737192943744 7407 -17715 -2266 -512880
832781737211156224 7227 -17933 -2316 -512839
832781737229368576 7003 -18142 -2283 -512870
832781737247581056 6945 -18302 -2296 -512855
832781737265793408 6872 -18352 -2247 -512895
832781737284005888 6922 -18307 -2340 -512882
832781737302218240 7108 -18128 -2307 -512878
832781737320430720 7322 -17987 -2238 -512853
832781737338643072 7433 -17813 -2323 -512878
832781737356855552 7664 -17572 -2308 -512889
832781737375067904 7925 -17395 -2264 -512908
832781737393280384 8070 -17130 -2269 -512810
832781737411492736 8228 -17032 -2341 -512840
832781737429705216 8364 -16904 -2234 -512852
832781737447917732 8387 -16853 -2320 -512880
832781737466130432 8350 -16814 -2342 -512926
832781737484343168 8381 -16734 -2248 -512885
832781737502555904 8385 -16759 -2225 -512863
832781737520768512 8428 -16749 -2232 -512857
832781737538981248 8457 -16663 -2249 -512889
832781737557193984 8616 -16605 -2274 -512868
832781737575406720 8674 -16466 -2240 -512878
832781737593619328 8881 -16315 -2233 -512863
832781737611832064 9061 -16128 -2304 -512896
832781737630044800 9306 -15821 -2278 -512877
832781737648257536 9518 -15595 -2309 -512922
832781737666470144 9754 -15458 -2295 -512890
832781737684682880 9900 -15303 -2343 -512911
832781737702895616 9965 -15220 -2291 -512915
832781737721108352 9915 -15276 -2253 -512910
832781737739321088 9760 -15413 -2250 -512924
832781737757533696 9546 -15676 -2251 -512906
832781737775746432 9162 -15975 -2224 -512923
832781737793959168 8840 -16343 -2289 -512871
832781737812171904 8454 -16728 -2325 -512925
832781737830384512 8079 -17139 -2311 -512882
832781737848597248 7727 -17512 -2212 -512862
832781737866809984 7361 -17806 -2273 -512861
832781737885022720 7151 -18095 -2217 -512853
832781737903235328 6918 -18282 -2259 -512903
832781737921448064 6857 -18349 -2328 -512879
832781737939660800 6908 -18349 -2246 -512915
832781737957873536 6971 -18223 -2249 -512860
832781737976086272 7175 -17969 -2307 -512837
832781737994298880 7389 -17824 -2276 -512839
832781738012511616 7526 -17645 -2261 -512825
832781738030724352 7710 -17497 -2276 -512879
832781738048937088 7964 -17255 -2226 -512848
832781738067149696 8087 -17067 -2257 -512897
832781738085362432 8233 -16952 -2284 -512860
832781738103575168 8384 -16871 -2258 -512868
832781738121787904 8364 -16843 -2275 -512899
832781738140000512 8373 -16746 -2245 -512861
832781738158213248 8442 -16760 -2209 -512841
832781738176425984 8481 -16763 -2204 -512834
832781738194638720 8487 -16734 -2214 -512850
832781738212851400 8517 -16707 -2241 -512919
832781738231064320 8603 -16644 -2275 -512872
832781738249277184 8840 -16466 -2318 -512836
832781738267490048 8971 -16247 -2266 -512909
832781738285702912 9172 -16036 -2280 -512867
832781738303915776 9410 -15814 -2260 -512822
832781738322128640 9623 -15553 -2231 -512857
832781738340341376 9873 -15352 -2222 -512801
832781738358554240 10030 -15246 -2233 -512771
832781738376767104 10004 -15218 -2242 -512850
832781738394979968 9934 -15293 -2282 -512872
832781738413192832 9768 -15488 -2222 -512813
832781738431405696 9473 -15825 -2327 -512834
832781738449618560 9100 -16138 -2291 -512825
832781738467831424 8784 -16486 -2229 -512809
832781738486044288 8394 -16786 -2248 -512877
832781738504257152 7964 -17228 -2272 -512896
832781738522469888 7565 -17568 -2280 -512896
832781738540682752 7244 -17924 -2291 -512921
832781738558895616 7025 -18184 -2335 -512914
832781738577108480 6925 -18221 -2296 -512856
832781738595321344 6872 -18264 -2235 -512928
832781738613534208 6864 -18307 -2268 -512931
832781738631747072 7020 -18160 -2263 -512856
832781738649959936 7184 -18007 -2272 -512903
832781738668172800 7398 -17783 -2278 -512867
832781738686385664 7558 -17589 -2330 -512894
832781738704598528 7877 -17404 -2221 -512863
832781738722811264 7981 -17172 -2276 -512855
832781738741024128 8209 -16975 -2317 -512851
832781738759236992 8296 -16881 -2280 -512848
832781738777449856 8383 -16817 -2255 -512864
832781738795662720 8430 -16881 -2259 -512901
832781738813875584 8377 -16858 -2347 -512882
832781738832088448 8361 -16836 -2324 -512941
832781738850301312 8362 -16783 -2303 -512860
832781738868514176 8400 -16773 -2240 -512942
832781738886727040 8474 -16668 -2282 -512907
832781738904939776 8593 -16593 -2333 -512957
832781738923152640 8788 -16315 -2316 -512879
832781738941365504 9048 -16088 -2242 -512868
832781738959578368 9251 -15876 -2279 -512826
832781738977791174 9433 -15734 -2303 -512922
832781738996004224 9780 -15292 -2261 -512895
832781739014217216 9969 -15191 -2251 -512877
832781739032430208 10001 -15156 -2256 -512932
832781739050643200 10010 -15189 -2262 -512893
832781739068856192 9892 -15305 -2270 -512856
832781739087069184 9629 -15557 -2267 -512843
832781739105282176 9305 -15935 -2303 -512886
832781739123495168 8910 -16306 -2248 -512881
832781739141708160 8483 -16745 -2332 -512901
832781739159921152 8160 -17056 -2212 -512882
832781739178134144 7719 -17482 -2316 -512947
832781739196347136 7425 -17813 -2296 -512890
832781739214560128 7162 -18036 -2328 -512904
832781739232773248 6990 -18177 -2257 -512838
