TIMESTAMP PPG0 PPG1 PPG2 AMBIENT
832781280136876288 177323 142724 167696 -342287
832781280155058048 177336 142654 167631 -342244
832781280173239936 177396 142768 167686 -342222
832781280191421696 177389 142814 167665 -342253
832781280209603584 177421 142768 167652 -342244
832781280227785344 177318 142716 167656 -342235
832781280245967232 177356 142716 167682 -342248
832781280264148992 177340 142739 167674 -342287
832781280282330880 177371 142685 167705 -342216
832781280300512640 177367 142689 167640 -342235
832781280318694528 177398 142663 167678 -342272
832781280336876288 177324 142687 167713 -342248
832781280355058048 177362 142737 167667 -342227
832781280373239936 177356 142730 167622 -342231
832781280391421696 177394 142716 167646 -342210
832781280409603584 177355 142681 167625 -342212
832781280427785344 177391 142717 167652 -342246
832781280445967232 177390 142735 167671 -342238
832781280464148992 177345 142737 167705 -342244
832781280482330880 177391 142782 167716 -342197
832781280500512640 177385 142722 167735 -342232
832781280518694528 177408 142739 167649 -342245
832781280536876288 177367 142756 167708 -342266
832781280555058048 177348 142663 167681 -342249
832781280573239936 177375 142746 167715 -342233
832781280591421696 177355 142723 167737 -342257
832781280609603584 177364 142770 167647 -342319
832781280627785344 177402 142753 167647 -342274
832781280645967232 177393 142744 167650 -342267
832781280664148992 177340 142724 167652 -342270
832781280682330880 177379 142762 167702 -342262
832781280700512640 177451 142755 167753 -342240
832781280718694528 177411 142688 167664 -342212
832781280736876288 177437 142710 167701 -342263
832781280755058048 177389 142685 167659 -342242
832781280773239936 177392 142706 167704 -342200
832781280791421696 177400 142740 167660 -342223
832781280809603584 177367 142710 167704 -342232
832781280827785344 177339 142729 167629 -342232
832781280845967232 177342 142716 167661 -342311
832781280864148992 177377 142733 167719 -342213
832781280882330880 177354 142772 167725 -342262
832781280900512640 177356 142750 167714 -342225
832781280918694528 177430 142732 167736 -342282
832781280936876288 177384 142655 167708 -342237
832781280955058048 177394 142757 167623 -342249
832781280973239936 177377 142776 167625 -342256
832781280991421696 177410 142803 167702 -342244
832781281009603584 177382 142719 167717 -342229
832781281027785344 177391 142763 167730 -342261
832781281045967232 177408 142732 167669 -342280
832781281064149050 177403 142775 167729 -342301
832781281082359680 177392 142725 167625 -342333
832781281100570368 177366 142721 167661 -342234
832781281118780928 177390 142763 167679 -342229
832781281136991616 177320 142732 167690 -342278
832781281155202304 177428 142725 167759 -342237
832781281173412864 177378 142791 167708 -342245
832781281191623552 177375 142786 167663 -342214
832781281209834240 177393 142746 167661 -342274
832781281228044800 177395 142708 167708 -342251
832781281246255488 177381 142702 167720 -342225
832781281264466176 177360 142732 167662 -342283
832781281282676736 177370 142755 167684 -342265
832781281300887424 177386 142748 167716 -342288
832781281319098112 177370 142754 167669 -342246
832781281337308672 177349 142735 167680 -342250
832781281355519360 177379 142710 167658 -342263
832781281373730048 177445 142762 167663 -342260
832781281391940608 177372 142713 167649 -342230
832781281410151296 177350 142707 167637 -342218
832781281428361984 177377 142708 167652 -342250
832781281446572544 177387 142708 167699 -342196
832781281464783232 177394 142745 167698 -342282
832781281482993920 177451 142762 167671 -342211
832781281501204480 177402 142685 167691 -342245
832781281519415168 177357 142736 167667 -342299
832781281537625856 177359 142764 167719 -342242
832781281555836416 177400 142793 167763 -342218
832781281574047104 177384 142702 167674 -342323
832781281592257792 177337 142646 167702 -342268
832781281610468352 177369 142732 167699 -342244
832781281628679040 177309 142648 167648 -342282
832781281646889728 177324 142706 167688 -342268
832781281665100288 177420 142768 167725 -342235
832781281683310976 177402 142705 167707 -342248
832781281701521664 177348 142673 167615 -342270
832781281719732224 177429 142750 167674 -342278
832781281737942912 177405 142717 167635 -342265
832781281756153600 177413 142753 167596 -342233
832781281774364160 177362 142816 167703 -342223
832781281792574848 177367 142786 167648 -342233
832781281810785536 177453 142774 167705 -342250
832781281828996096 177369 142800 167708 -342265
832781281847206784 177360 142729 167696 -342264
832781281865417450 177458 142772 167758 -342182
832781281883627776 177440 142773 167681 -342226
832781281901838080 177436 142701 167692 -342255
832781281920048256 180894 146246 167724 -342276
832781281938258560 182494 147798 167773 -342222
832781281956468864 183176 148544 167680 -342220
832781281974679040 183620 148978 167667 -342220
832781281992889344 183975 149341 167701 -342186
832781282011099648 184261 149593 167715 -342192
832781282029309952 184467 149767 167703 -342202
832781282047520128 184621 149959 167681 -342213
832781282065730432 184760 150121 167703 -342238
832781282083940736 184886 150233 167702 -342234
832781282102150912 184933 150266 167679 -342313
832781282120361216 184942 150308 167705 -342264
832781282138571520 184993 150333 167699 -342247
832781282156781696 184946 150420 167694 -342235
832781282174992000 184986 150384 167742 -342240
832781282193202304 184974 150409 167692 -342257
832781282211412608 185119 150458 167673 -342283
832781282229622784 185296 150637 167726 -342214
832781282247833088 185407 150691 167675 -342240
832781282266043392 185579 150908 167705 -342230
832781282284253568 185718 151081 167679 -342297
832781282302463872 185975 151350 167727 -342265
832781282320674176 186214 151527 167687 -342243
832781282338884352 186312 151623 167618 -342281
832781282357094656 186444 151757 167692 -342304
832781282375304960 186446 151761 167670 -342287
832781282393515136 186334 151639 167724 -342227
832781282411725440 186085 151431 167641 -342281
832781282429935744 185841 151151 167662 -342265
832781282448146048 185516 150785 167676 -342313
832781282466356224 185120 150444 167631 -342313
832781282484566528 184780 150092 167708 -342256
832781282502776726 184467 149744 167643 -342296
832781282520987520 184117 149403 167607 -342285
832781282539198336 183875 149147 167612 -342302
832781282557409152 183678 148984 167640 -342311
832781282575619968 183618 148907 167687 -342289
832781282593830784 183605 148874 167714 -342260
832781282612041600 183633 148997 167722 -342276
832781282630252416 183767 149094 167693 -342211
832781282648463232 183893 149326 167679 -342203
832781282666674048 184091 149473 167642 -342246
832781282684884864 184266 149694 167725 -342291
832781282703095680 184433 149821 167667 -342267
832781282721306496 184644 149982 167695 -342236
832781282739517312 184793 150145 167663 -342262
832781282757728128 184778 150195 167695 -342282
832781282775938944 184981 150276 167779 -342254
832781282794149760 184944 150286 167698 -342273
832781282812360576 184917 150310 167669 -342302
832781282830571392 185019 150264 167692 -342231
832781282848782208 185016 150327 167694 -342249
832781282866993024 185052 150356 167679 -342220
832781282885203840 185169 150401 167647 -342256
832781282903414656 185288 150579 167714 -342231
832781282921625472 185439 150769 167696 -342277
832781282939836288 185596 150924 167690 -342305
832781282958047104 185781 151131 167645 -342310
832781282976257920 186049 151335 167635 -342285
832781282994468736 186255 151583 167709 -342246
832781283012679552 186366 151707 167683 -342255
832781283030890368 186493 151799 167702 -342216
832781283049101184 186416 151755 167650 -342270
832781283067312000 186224 151618 167713 -342276
832781283085522816 186052 151393 167670 -342252
832781283103733632 185735 151100 167716 -342267
832781283121944448 185293 150714 167640 -342307
832781283140155264 185011 150366 167683 -342249
832781283158366080 184624 150028 167670 -342250
832781283176576896 184306 149646 167692 -342242
832781283194787712 184002 149275 167659 -342259
832781283212998528 183778 149112 167623 -342264
832781283231209344 183640 148976 167622 -342282
832781283249420160 183554 148864 167668 -342247
832781283267631048 183543 148887 167654 -342244
832781283285841920 183639 148974 167663 -342251
832781283304052736 183766 149164 167679 -342215
832781283322263552 183913 149301 167673 -342222
832781283340474368 184159 149522 167688 -342272
832781283358685184 184380 149717 167636 -342278
832781283376896000 184573 149916 167683 -342317
832781283395106816 184725 150021 167686 -342242
832781283413317632 184830 150164 167683 -342300
832781283431528448 184886 150210 167682 -342237
832781283449739264 184911 150212 167681 -342251
832781283467950080 184971 150331 167805 -342235
832781283486160896 184985 150367 167733 -342298
832781283504371712 185105 150437 167692 -342257
832781283522582528 185102 150443 167693 -342263
832781283540793344 185099 150437 167652 -342232
832781283559004160 185151 150519 167670 -342271
832781283577214976 185305 150630 167641 -342297
832781283595425792 185489 150845 167654 -342278
832781283613636608 185713 151040 167668 -342245
832781283631847424 185862 151248 167736 -342267
832781283650058240 186060 151432 167710 -342284
832781283668269056 186234 151578 167615 -342330
832781283686479872 186382 151789 167666 -342304
832781283704690688 186412 151736 167626 -342301
832781283722901504 186350 151674 167674 -342278
832781283741112320 186146 151487 167649 -342296
832781283759323136 185909 151248 167714 -342256
832781283777533952 185576 150903 167727 -342270
832781283795744768 185303 150577 167670 -342278
832781283813955584 184881 150178 167685 -342282
832781283832166400 184479 149890 167680 -342264
832781283850377216 184221 149510 167658 -342284
832781283868588032 183971 149274 167642 -342253
832781283886798848 183695 149020 167673 -342289
832781283905009664 183620 148944 167688 -342245
832781283923220480 183565 148841 167660 -342293
832781283941431296 183561 148919 167662 -342268
832781283959642112 183678 149026 167660 -342269
832781283977852928 183852 149146 167668 -342294
832781283996063744 184077 149338 167671 -342307
832781284014274560 184297 149520 167694 -342270
832781284032485370 184486 149778 167725 -342246
832781284050694144 184591 149929 167733 -342237
832781284068902912 184739 150105 167716 -342239
832781284087111680 184872 150141 167693 -342274
832781284105320320 184970 150258 167680 -342251
832781284123529088 184944 150354 167653 -342273
832781284141737856 184974 150290 167685 -342256
832781284159946624 184998 150299 167693 -342298
832781284178155392 185039 150347 167688 -342307
832781284196364160 185096 150391 167753 -342294
832781284214572800 185142 150467 167741 -342280
832781284232781568 185227 150593 167705 -342260
832781284250990336 185386 150710 167712 -342257
832781284269199104 185561 150930 167722 -342247
832781284287407872 185751 151097 167717 -342281
832781284305616640 186028 151374 167742 -342228
832781284323825280 186229 151463 167623 -342245
832781284342034048 186370 151691 167687 -342254
832781284360242816 186431 151762 167675 -342257
832781284378451584 186412 151744 167674 -342185
832781284396660352 186267 151594 167651 -342259
832781284414869120 186096 151412 167687 -342273
832781284433077760 185803 151129 167695 -342250
832781284451286528 185446 150832 167733 -342291
832781284469495296 185097 150472 167710 -342257
832781284487704064 184737 150144 167667 -342266
832781284505912832 184406 149719 167716 -342255
832781284524121600 184093 149423 167664 -342247
832781284542330240 183841 149199 167619 -342252
832781284560539008 183655 149053 167646 -342281
832781284578747776 183573 148883 167644 -342266
832781284596956544 183633 148928 167743 -342279
832781284615165312 183711 148979 167726 -342221
832781284633374080 183778 149129 167677 -342280
832781284651582720 183925 149282 167683 -342249
832781284669791488 184193 149515 167709 -342221
832781284688000256 184350 149682 167695 -342208
832781284706209024 184490 149917 167692 -342277
832781284724417792 184695 150090 167682 -342235
832781284742626560 184784 150127 167643 -342316
832781284760835200 184909 150323 167720 -342270
832781284779043968 184955 150349 167709 -342259
832781284797252714 184951 150291 167727 -342238
832781284815463296 184955 150364 167733 -342270
832781284833673856 184931 150343 167692 -342280
832781284851884288 185004 150348 167695 -342238
832781284870094848 185095 150446 167743 -342221
832781284888305408 185134 150446 167703 -342276
832781284906515840 185292 150636 167688 -342277
832781284924726400 185439 150803 167649 -342225
832781284942936960 185687 150976 167658 -342264
832781284961147392 185855 151212 167684 -342280
832781284979357952 186113 151421 167690 -342252
832781284997568384 186297 151569 167616 -342315
832781285015778944 186420 151690 167637 -342262
832781285033989504 186474 151822 167707 -342211
832781285052199936 186383 151693 167691 -342269
832781285070410496 186230 151561 167692 -342265
832781285088621056 186002 151335 167705 -342263
832781285106831488 185727 151054 167691 -342164
832781285125042048 185354 150662 167718 -342221
832781285143252608 184919 150260 167662 -342252
832781285161463040 184620 149906 167685 -342199
832781285179673600 184248 149652 167666 -342251
832781285197884160 183982 149325 167641 -342259
832781285216094592 183783 149166 167649 -342264
832781285234305152 183620 149000 167658 -342282
832781285252515584 183498 148912 167668 -342287
832781285270726144 183538 148942 167660 -342299
832781285288936704 183709 149076 167744 -342214
832781285307147136 183808 149203 167705 -342227
832781285325357696 184007 149361 167651 -342276
832781285343568256 184206 149580 167669 -342260
832781285361778688 184352 149716 167704 -342277
832781285379989248 184616 149931 167633 -342272
832781285398199808 184002 149333 167644 -342209
832781285416410240 183013 148231 167644 -342255
832781285434620800 179876 145138 167640 -342299
832781285452831240 180985 146200 167669 -342298
832781285471042432 180579 145826 167688 -342240
832781285489253632 180421 145699 167636 -342282
832781285507464960 181108 146305 167642 -342323
832781285525676160 181745 146996 167592 -342329
832781285543887360 182081 147352 167616 -342265
832781285562098560 182295 147563 167712 -342290
832781285580309888 183017 148209 167731 -342297
832781285598521088 183928 149197 167671 -342367
832781285616732288 184631 149898 167704 -342245
832781285634943488 185210 150458 167680 -342256
832781285653154816 185671 150856 167683 -342284
832781285671366016 185940 151148 167716 -342282
832781285689577216 186064 151274 167667 -342296
832781285707788544 186146 151363 167748 -342261
832781285725999744 186097 151276 167679 -342234
832781285744210944 185952 151129 167697 -342272
832781285762422144 185580 150843 167671 -342313
832781285780633472 185346 150545 167614 -342280
832781285798844672 185001 150266 167699 -342250
832781285817055872 184590 149847 167642 -342245
832781285835267072 184276 149542 167726 -342276
832781285853478400 184025 149233 167707 -342236
832781285871689600 183733 148986 167685 -342255
832781285889900800 183581 148782 167616 -342265
832781285908112128 183530 148773 167752 -342198
832781285926323328 183426 148748 167665 -342217
832781285944534528 183502 148748 167657 -342278
832781285962745728 183624 148898 167697 -342232
832781285980957056 183722 148973 167680 -342342
832781285999168256 183993 149341 167728 -342282
832781286017379456 184099 149414 167703 -342324
832781286035590656 184374 149589 167666 -342295
832781286053801984 184480 149749 167717 -342295
832781286072013184 184652 149844 167731 -342239
832781286090224384 184693 149946 167681 -342236
832781286108435702 184770 149997 167649 -342262
832781286126646528 184810 150068 167686 -342302
832781286144857344 184813 150032 167634 -342293
832781286163068160 184845 149997 167626 -342269
832781286181278976 184931 150071 167704 -342236
832781286199489792 184921 150052 167670 -342298
832781286217700608 184987 150209 167685 -342294
832781286235911424 185038 150322 167684 -342313
832781286254122240 185266 150562 167704 -342243
832781286272333056 185403 150684 167678 -342264
832781286290543872 185629 150900 167694 -342273
832781286308754688 185850 151069 167708 -342247
832781286326965504 186012 151261 167681 -342278
832781286345176320 186189 151408 167671 -342225
832781286363387136 186272 151471 167697 -342264
832781286381597952 186220 151388 167673 -342259
832781286399808768 186083 151316 167664 -342283
832781286418019584 185901 151068 167680 -342280
832781286436230400 185559 150821 167654 -342307
832781286454441216 185204 150432 167684 -342280
832781286472652032 184912 150132 167693 -342238
832781286490862848 184494 149761 167698 -342250
832781286509073664 184165 149403 167648 -342290
832781286527284480 183836 149131 167680 -342255
832781286545495296 183670 148958 167680 -342259
832781286563706112 183573 148792 167715 -342202
832781286581916928 183459 148670 167625 -342249
832781286600127744 183475 148736 167713 -342201
832781286618338560 183560 148803 167665 -342226
832781286636549376 183679 148933 167654 -342260
832781286654760192 183827 149040 167646 -342235
832781286672971008 184058 149260 167713 -342269
832781286691181824 184226 149436 167674 -342289
832781286709392640 184397 149630 167635 -342277
832781286727603456 184550 149771 167674 -342291
832781286745814272 184650 149862 167717 -342293
832781286764025088 184761 149943 167704 -342307
832781286782235904 184814 150058 167713 -342251
832781286800446720 184828 149977 167627 -342260
832781286818657536 184841 150022 167663 -342300
832781286836868352 184843 150074 167719 -342294
832781286855079168 184848 150010 167616 -342274
832781286873290024 184896 150129 167630 -342295
832781286891500032 184964 150197 167660 -342254
832781286909710080 185108 150337 167629 -342314
832781286927920256 185329 150528 167611 -342261
832781286946130304 185474 150714 167551 -342284
832781286964340352 185658 150918 167530 -342354
832781286982550528 185873 151093 167575 -342286
832781287000760576 186064 151254 167548 -342313
832781287018970624 186169 151372 167595 -342310
832781287037180800 186190 151404 167660 -342301
832781287055390848 186075 151345 167617 -342355
832781287073600896 185936 151188 167635 -342291
832781287091811072 185698 150920 167606 -342316
832781287110021120 185414 150605 167674 -342254
832781287128231168 185059 150223 167580 -342249
832781287146441344 184742 149923 167653 -342260
832781287164651392 184381 149583 167623 -342269
832781287182861440 184016 149308 167702 -342311
832781287201071616 183771 148991 167664 -342318
832781287219281664 183615 148843 167674 -342299
832781287237491712 183464 148638 167598 -342286
832781287255701888 183448 148693 167597 -342319
832781287273911936 183484 148678 167598 -342298
832781287292121984 183565 148795 167615 -342304
832781287310332160 183740 148933 167631 -342331
832781287328542208 183924 149119 167721 -342329
832781287346752256 184092 149339 167639 -342278
832781287364962432 184244 149524 167662 -342306
832781287383172480 184499 149699 167686 -342276
832781287401382528 184568 149768 167611 -342333
832781287419592704 184668 149938 167699 -342270
832781287437802752 184687 149980 167637 -342301
832781287456012800 184738 150007 167680 -342296
832781287474222976 184909 150190 167636 -342279
832781287492433024 184915 150137 167664 -342256
832781287510643072 184863 150105 167622 -342303
832781287528853248 184904 150087 167674 -342316
832781287547063296 184987 150132 167613 -342274
832781287565273344 185045 150269 167640 -342322
832781287583483520 185259 150418 167640 -342236
832781287601693568 185357 150578 167674 -342306
832781287619903616 185547 150823 167697 -342257
832781287638113828 185803 151020 167682 -342272
832781287656325120 185949 151150 167642 -342240
832781287674536448 186175 151378 167654 -342260
832781287692747904 186228 151510 167628 -342298
832781287710959232 186226 151492 167616 -342273
832781287729170560 186142 151338 167613 -342270
832781287747381888 185906 151143 167684 -342185
832781287765593344 185663 150909 167645 -342298
832781287783804672 185301 150604 167693 -342240
832781287802016000 184979 150241 167679 -342259
832781287820227328 184603 149826 167718 -342296
832781287838438784 184210 149487 167673 -342282
832781287856650112 183910 149150 167698 -342253
832781287874861440 183681 148958 167696 -342271
832781287893072768 183525 148763 167674 -342269
832781287911284224 183469 148770 167705 -342273
832781287929495552 183399 148707 167645 -342314
832781287947706880 183515 148760 167668 -342297
832781287965918336 183644 148961 167637 -342270
832781287984129664 183940 149168 167656 -342234
832781288002340992 184080 149266 167726 -342187
832781288020552320 184192 149497 167722 -342234
832781288038763776 184326 149598 167730 -342283
832781288056975104 184466 149732 167678 -342293
832781288075186432 184619 149922 167725 -342274
832781288093397760 184698 150008 167712 -342300
832781288111609216 184773 150021 167636 -342305
832781288129820544 184789 150081 167653 -342271
832781288148031872 184797 150079 167675 -342334
832781288166243200 184810 150078 167709 -342289
832781288184454656 184827 150077 167691 -342333
832781288202665984 184978 150130 167647 -342310
832781288220877312 184954 150189 167645 -342314
832781288239088768 185150 150338 167683 -342302
832781288257300096 185221 150460 167639 -342285
832781288275511424 185487 150769 167714 -342243
832781288293722752 185677 150888 167664 -342259
832781288311934208 185919 151069 167688 -342260
832781288330145536 186073 151284 167599 -342304
832781288348356864 186257 151412 167614 -342240
832781288366568192 186234 151465 167651 -342265
832781288384779648 186229 151469 167690 -342230
832781288402991040 186054 151289 167681 -342265
832781288421202048 185830 151063 167679 -342229
832781288439412992 185541 150737 167696 -342248
832781288457623808 185137 150403 167667 -342242
832781288475834752 184794 150020 167641 -342277
832781288494045568 184381 149683 167613 -342276
832781288512256512 184083 149375 167658 -342266
832781288530467328 183797 149081 167617 -342271
832781288548678272 183633 148863 167583 -342273
832781288566889216 183474 148739 167660 -342268
832781288585100032 183376 148653 167668 -342313
832781288603310976 183445 148689 167634 -342283
832781288621521792 183490 148703 167609 -342321
832781288639732736 183750 148904 167668 -342250
832781288657943680 183843 149087 167681 -342311
832781288676154496 184066 149351 167667 -342234
832781288694365440 184257 149496 167590 -342302
832781288712576256 184418 149674 167668 -342242
832781288730787200 184539 149774 167652 -342288
832781288748998016 184657 149916 167644 -342286
832781288767208960 184761 149964 167665 -342271
832781288785419904 184790 150039 167714 -342284
832781288803630720 184822 150037 167670 -342294
832781288821841664 184804 150100 167660 -342327
832781288840052480 184851 150106 167675 -342293
832781288858263424 184894 150141 167635 -342304
832781288876474240 184946 150184 167665 -342294
832781288894685184 185063 150248 167674 -342280
832781288912896128 185143 150440 167657 -342282
832781288931106944 185374 150501 167665 -342299
832781288949317888 185591 150810 167710 -342250
832781288967528704 185747 151015 167684 -342273
832781288985739648 185939 151273 167649 -342285
832781289003950464 186153 151455 167656 -342284
832781289022161408 186231 151470 167651 -342316
832781289040372352 186255 151452 167680 -342283
832781289058583168 186191 151352 167657 -342310
832781289076794112 186050 151244 167675 -342262
832781289095004928 185755 150921 167665 -342306
832781289113215872 185481 150644 167730 -342244
832781289131426816 185045 150317 167650 -342318
832781289149637632 184672 149918 167664 -342290
832781289167848414 184333 149574 167736 -342248
832781289186060032 184031 149267 167694 -342310
832781289204271616 183791 149062 167709 -342300
832781289222483328 183665 148842 167726 -342243
832781289240694912 183494 148671 167636 -342307
832781289258906496 183504 148722 167688 -342265
832781289277118080 183586 148727 167666 -342286
832781289295329792 183663 148919 167714 -342269
832781289313541376 183780 149001 167701 -342278
832781289331752960 184017 149230 167707 -342288
832781289349964544 184118 149431 167664 -342280
832781289368176256 184349 149583 167667 -342274
832781289386387840 184597 149760 167695 -342203
832781289404599424 184713 149878 167654 -342262
832781289422811008 184806 149992 167724 -342229
832781289441022720 184850 150031 167652 -342285
832781289459234304 184896 150042 167680 -342256
832781289477445888 184920 150049 167663 -342301
832781289495657472 184882 150078 167698 -342311
832781289513869184 184914 150134 167713 -342311
832781289532080768 184940 150124 167707 -342286
832781289550292352 185017 150225 167682 -342288
832781289568503936 185154 150406 167649 -342303
832781289586715648 185296 150573 167724 -342267
832781289604927232 185504 150706 167711 -342240
832781289623138816 185642 150827 167658 -342263
832781289641350400 185811 151095 167651 -342269
832781289659562112 186013 151256 167645 -342282
832781289677773696 186191 151475 167630 -342306
832781289695985280 186280 151511 167562 -342280
832781289714196864 186248 151433 167645 -342281
832781289732408576 186155 151388 167671 -342239
832781289750620160 185915 151161 167755 -342252
832781289768831744 185594 150834 167668 -342302
832781289787043328 185282 150503 167691 -342267
832781289805255040 184931 150144 167698 -342296
832781289823466624 184544 149776 167614 -342331
832781289841678208 184227 149479 167685 -342264
832781289859889792 183922 149198 167641 -342273
832781289878101504 183729 148940 167665 -342290
832781289896313088 183502 148830 167630 -342319
832781289914524672 183460 148794 167699 -342302
832781289932736306 183452 148702 167634 -342328
832781289950947200 183485 148754 167622 -342302
832781289969158144 183726 149025 167636 -342288
832781289987368960 183890 149162 167627 -342296
832781290005579904 184056 149316 167632 -342244
832781290023790720 184253 149468 167636 -342288
832781290042001664 184388 149626 167611 -342289
832781290060212480 184535 149806 167639 -342290
832781290078423424 184709 149937 167657 -342261
832781290096634368 184766 149972 167684 -342270
832781290114845184 184847 150085 167722 -342274
832781290133056128 184855 150071 167698 -342265
832781290151266944 184839 150045 167659 -342345
832781290169477888 184840 150094 167648 -342281
832781290187688832 184849 150124 167645 -342280
832781290205899648 184941 150220 167696 -342279
832781290224110592 185039 150222 167657 -342252
832781290242321408 185179 150444 167739 -342270
832781290260532352 185323 150504 167631 -342261
832781290278743168 185552 150770 167649 -342245
832781290296954112 185781 150942 167630 -342310
832781290315165056 185992 151236 167619 -342318
832781290333375872 186145 151332 167683 -342283
832781290351586816 186291 151475 167634 -342287
832781290369797632 186275 151423 167677 -342293
832781290388008576 186207 151460 167691 -342353
832781290406219392 186068 151325 167662 -342264
832781290424430336 185854 151085 167637 -342267
832781290442641280 185560 150757 167662 -342237
832781290460852096 185148 150447 167666 -342281
832781290479063040 184943 150188 167623 -342291
832781290497273856 184523 149744 167690 -342278
832781290515484800 184185 149425 167687 -342284
832781290533695744 183880 149154 167687 -342287
832781290551906560 183703 148923 167660 -342284
832781290570117504 183527 148746 167704 -342264
832781290588328320 183487 148661 167662 -342314
832781290606539264 183546 148747 167686 -342264
832781290624750080 183595 148867 167710 -342303
832781290642961024 183743 149009 167702 -342297
832781290661171968 183995 149221 167747 -342261
832781290679382784 184123 149421 167698 -342274
832781290697593690 184258 149519 167674 -342268
832781290715804672 184519 149718 167719 -342284
832781290734015616 184614 149828 167643 -342256
832781290752226432 184745 149951 167631 -342243
832781290770437376 184744 150005 167660 -342261
832781290788648192 184808 150064 167665 -342297
832781290806859136 184829 150104 167661 -342294
832781290825069952 184843 150085 167641 -342269
832781290843280896 184848 150101 167657 -342293
832781290861491840 184928 150176 167646 -342237
832781290879702656 184958 150240 167639 -342321
832781290897913600 185078 150338 167685 -342274
832781290916124416 185205 150489 167667 -342305
832781290934335360 185385 150673 167702 -342247
832781290952546304 185632 150898 167698 -342287
832781290970757120 185862 151073 167664 -342286
832781290988968064 186122 151395 167612 -342273
832781291007178880 186261 151509 167658 -342318
832781291025389824 186336 151567 167701 -342244
832781291043600640 186300 151562 167678 -342256
832781291061811584 186168 151448 167682 -342215
832781291080022528 185970 151263 167700 -342238
832781291098233344 185738 150990 167662 -342287
832781291116444288 185392 150572 167646 -342305
832781291134655104 185029 150227 167646 -342315
832781291152866048 184633 149899 167653 -342246
832781291171076864 184316 149587 167670 -342250
832781291189287808 184027 149334 167715 -342248
832781291207498752 183738 149019 167676 -342268
832781291225709568 183590 148838 167664 -342265
832781291243920512 183517 148708 167637 -342295
832781291262131328 183499 148741 167637 -342323
832781291280342272 183552 148789 167618 -342256
832781291298553088 183649 148849 167684 -342302
832781291316764032 183808 149012 167673 -342291
832781291334974976 184017 149226 167674 -342279
832781291353185792 184228 149371 167662 -342339
832781291371396736 184392 149584 167703 -342285
832781291389607552 184515 149753 167679 -342291
832781291407818496 184672 149864 167725 -342283
832781291426029440 184778 150002 167676 -342294
832781291444240256 184853 150108 167707 -342300
832781291462451064 184872 150078 167654 -342235
832781291480661760 184840 150094 167650 -342287
832781291498872448 184869 150132 167679 -342253
832781291517083136 184944 150085 167654 -342274
832781291535293824 185032 150233 167707 -342274
832781291553504640 185080 150327 167714 -342243
832781291571715328 185206 150396 167663 -342352
832781291589926016 185354 150581 167632 -342320
832781291608136704 185511 150752 167642 -342287
832781291626347392 185767 150953 167657 -342283
832781291644558080 185961 151118 167677 -342262
832781291662768896 186077 151299 167626 -342289
832781291680979584 186223 151470 167659 -342330
832781291699190272 186274 151519 167633 -342317
832781291717400960 186307 151509 167698 -342280
832781291735611648 186141 151438 167749 -342315
832781291753822336 185895 151140 167685 -342257
832781291772033152 185530 150826 167616 -342232
832781291790243840 185226 150479 167654 -342283
832781291808454528 184901 150188 167671 -342226
832781291826665216 184541 149757 167680 -342230
832781291844875904 184139 149423 167618 -342306
832781291863086592 183934 149166 167688 -342332
832781291881297280 183717 148942 167666 -342322
832781291899508096 183546 148787 167664 -342285
832781291917718784 183498 148728 167684 -342295
832781291935929472 183491 148706 167652 -342277
832781291954140160 183597 148815 167653 -342251
832781291972350848 183730 148939 167656 -342288
832781291990561536 183916 149117 167648 -342260
832781292008772352 184234 149409 167641 -342255
832781292026983040 184322 149542 167594 -342331
832781292045193728 184541 149737 167604 -342246
832781292063404416 184639 149856 167678 -342305
832781292081615104 184763 149975 167599 -342247
832781292099825792 184872 150066 167697 -342230
832781292118036608 184831 150070 167656 -342318
832781292136247296 184876 150040 167687 -342228
832781292154457984 184881 150117 167692 -342279
832781292172668672 184929 150106 167696 -342259
832781292190879360 184935 150094 167653 -342261
832781292209090048 184996 150169 167658 -342302
832781292227300808 185107 150262 167634 -342316
832781292245511168 185237 150427 167645 -342329
832781292263721472 185408 150652 167730 -342260
832781292281931904 185605 150821 167758 -342243
832781292300142208 185835 151089 167777 -342183
832781292318352512 186036 151263 167728 -342233
832781292336562944 186174 151407 167728 -342249
832781292354773248 186283 151540 167699 -342263
832781292372983552 186376 151586 167690 -342280
832781292391193984 186206 151422 167643 -342354
832781292409404288 186030 151246 167635 -342300
832781292427614592 185774 150956 167636 -342308
832781292445825024 185484 150742 167636 -342327
832781292464035328 185107 150343 167623 -342318
832781292482245632 184773 149937 167629 -342298
832781292500455936 184390 149574 167663 -342333
832781292518666368 184218 149377 167690 -342277
832781292536876672 183869 149095 167612 -342267
832781292555086976 183607 148823 167635 -342330
832781292573297408 183544 148765 167626 -342302
832781292591507712 183479 148770 167656 -342265
832781292609718016 183538 148780 167648 -342264
832781292627928448 183624 148861 167634 -342308
832781292646138752 183807 149035 167673 -342235
832781292664349056 183985 149189 167700 -342271
832781292682559488 184224 149435 167725 -342251
832781292700769792 184344 149598 167663 -342270
832781292718980096 184510 149817 167662 -342267
832781292737190528 184662 149902 167715 -342240
832781292755400832 184815 150041 167680 -342262
832781292773611136 184856 150061 167663 -342251
832781292791821568 184903 150082 167619 -342268
832781292810031872 184965 150088 167649 -342273
832781292828242176 184984 150216 167762 -342199
832781292846452608 184972 150230 167738 -342227
832781292864662912 185051 150231 167736 -342228
832781292882873216 185085 150281 167665 -342245
832781292901083648 185239 150357 167728 -342232
832781292919293952 185357 150517 167732 -342237
832781292937504256 185543 150701 167670 -342250
832781292955714560 185712 150948 167658 -342240
832781292973924992 186112 151259 167686 -342287
832781292992135294 186203 151422 167704 -342206
832781293010345856 186377 151547 167742 -342283
832781293028556416 186417 151634 167696 -342274
832781293046766976 186347 151520 167710 -342296
832781293064977536 186212 151455 167686 -342282
832781293083188096 186027 151180 167654 -342297
832781293101398656 185733 150934 167652 -342286
832781293119609216 185374 150602 167690 -342272
832781293137819776 185011 150242 167699 -342270
832781293156030336 184629 149861 167703 -342260
832781293174240896 184255 149528 167671 -342299
832781293192451456 184031 149228 167629 -342246
832781293210662016 183783 149030 167674 -342206
832781293228872576 183647 148841 167697 -342264
832781293247083136 183517 148728 167657 -342269
832781293265293696 183505 148792 167680 -342266
832781293283504256 183619 148805 167627 -342270
832781293301714816 183758 149007 167685 -342217
832781293319925376 183962 149088 167612 -342235
832781293338135936 184128 149251 167668 -342330
832781293356346496 184318 149512 167654 -342332
832781293374557056 184494 149680 167650 -342341
832781293392767616 184630 149896 167642 -342322
832781293410978176 184728 150005 167666 -342301
832781293429188864 184774 150086 167617 -342271
832781293447399424 184859 150178 167674 -342225
832781293465609984 184917 150120 167743 -342217
832781293483820544 185119 150273 167669 -342246
832781293502031104 185010 150219 167659 -342283
832781293520241664 184972 150249 167657 -342252
832781293538452224 185123 150237 167632 -342285
832781293556662784 185158 150379 167677 -342306
832781293574873344 185287 150471 167677 -342265
832781293593083904 185426 150641 167686 -342244
832781293611294464 185598 150836 167679 -342246
832781293629505024 185909 151079 167726 -342234
832781293647715584 186072 151273 167728 -342196
832781293665926144 186226 151469 167735 -342277
832781293684136704 186403 151538 167695 -342268
832781293702347264 186416 151643 167699 -342293
832781293720557824 186226 151466 167618 -342319
832781293738768384 186127 151357 167693 -342278
832781293756978934 185899 151079 167687 -342234
832781293775188992 185631 150756 167704 -342261
832781293793399040 185231 150437 167693 -342255
832781293811609216 184865 150068 167718 -342266
832781293829819264 184487 149750 167665 -342278
832781293848029312 184160 149422 167722 -342201
832781293866239488 183931 149174 167717 -342272
832781293884449536 183760 148955 167684 -342270
832781293902659584 183638 148812 167726 -342214
832781293920869760 183607 148751 167654 -342245
832781293939079808 183595 148763 167667 -342234
832781293957289856 183726 148924 167718 -342276
832781293975500032 183793 149055 167724 -342305
832781293993710080 184049 149222 167709 -342252
832781294011920128 184347 149594 167726 -342278
832781294030130304 184454 149691 167698 -342263
832781294048340352 184606 149757 167662 -342250
832781294066550400 184749 149968 167745 -342202
832781294084760576 184791 149990 167699 -342260
832781294102970624 184863 150085 167714 -342261
832781294121180672 184851 150120 167720 -342269
832781294139390848 184874 150104 167692 -342296
832781294157600896 184929 150140 167707 -342266
832781294175810944 184964 150228 167752 -342235
832781294194021120 185004 150214 167721 -342298
832781294212231168 185035 150291 167762 -342246
832781294230441216 185160 150327 167698 -342297
832781294248651392 185374 150571 167707 -342281
832781294266861440 185483 150704 167705 -342263
832781294285071488 185681 150902 167712 -342232
832781294303281664 185905 151158 167693 -342239
832781294321491712 186119 151321 167695 -342267
832781294339701760 186323 151530 167737 -342262
832781294357911936 186392 151605 167699 -342256
832781294376121984 186373 151611 167703 -342235
832781294394332032 186246 151451 167686 -342260
832781294412542208 186067 151273 167708 -342260
832781294430752256 185749 151001 167697 -342237
832781294448962304 185467 150714 167730 -342215
832781294467172480 185139 150295 167619 -342216
832781294485382528 184766 150017 167662 -342247
832781294503592576 184416 149592 167703 -342211
832781294521802738 184249 149423 167703 -342238
832781294540013568 183913 149109 167670 -342272
832781294558224384 183639 148928 167633 -342293
832781294576435200 183519 148846 167664 -342281
832781294594646016 183550 148781 167688 -342299
832781294612856832 183605 148864 167665 -342244
832781294631067648 183768 148972 167728 -342283
832781294649278464 183942 149103 167748 -342212
832781294667489280 184121 149349 167709 -342313
832781294685700096 184275 149488 167763 -342205
832781294703910912 184432 149618 167629 -342293
832781294722121728 184660 149829 167693 -342247
832781294740332544 184784 150013 167735 -342246
832781294758543360 184907 150087 167780 -342293
832781294776754176 184877 150102 167673 -342280
832781294794964992 184967 150168 167697 -342237
832781294813175808 184915 150139 167660 -342277
832781294831386624 184930 150174 167691 -342246
832781294849597440 184982 150141 167659 -342267
832781294867808256 185004 150192 167633 -342229
832781294886019072 185099 150236 167617 -342330
832781294904229888 185262 150407 167664 -342252
832781294922440704 185371 150571 167666 -342310
832781294940651520 185549 150785 167719 -342276
832781294958862336 185774 151028 167627 -342294
832781294977073152 186001 151186 167687 -342235
832781294995283968 186237 151425 167759 -342253
832781295013494784 186346 151550 167686 -342279
832781295031705600 186401 151651 167650 -342222
832781295049916416 186362 151524 167636 -342259
832781295068127232 186200 151370 167650 -342255
832781295086338048 186019 151190 167665 -342215
832781295104548864 185719 150930 167712 -342236
832781295122759680 185313 150573 167683 -342305
832781295140970496 184915 150227 167712 -342248
832781295159181312 184541 149777 167680 -342269
832781295177392128 184261 149482 167680 -342198
832781295195602944 183945 149239 167649 -342264
832781295213813760 183729 149034 167645 -342276
832781295232024576 183613 148853 167673 -342257
832781295250235392 183539 148793 167665 -342257
832781295268446208 183529 148764 167662 -342297
832781295286657060 183633 148864 167671 -342195
832781295304867712 183780 149008 167658 -342277
832781295323078400 183958 149224 167719 -342245
832781295341288960 184178 149435 167733 -342208
832781295359499648 184295 149526 167691 -342283
832781295377710208 184558 149713 167739 -342232
832781295395920896 184689 149835 167673 -342246
832781295414131584 184789 150005 167644 -342226
832781295432342144 184874 150132 167691 -342232
832781295450552832 184940 150152 167735 -342229
832781295468763392 185097 150338 167730 -342216
832781295486974080 185037 150210 167713 -342198
832781295505184640 185000 150204 167669 -342235
832781295523395328 185011 150221 167631 -342198
832781295541606016 185034 150279 167646 -342302
832781295559816576 185103 150371 167684 -342269
832781295578027264 185244 150535 167701 -342245
832781295596237824 185476 150665 167628 -342313
832781295614448512 185646 150909 167659 -342269
832781295632659200 185837 151091 167700 -342287
832781295650869760 186113 151328 167722 -342274
832781295669080448 186232 151467 167694 -342280
832781295687291008 186386 151568 167733 -342268
832781295705501696 186380 151566 167640 -342254
832781295723712384 186313 151455 167622 -342260
832781295741922944 186154 151306 167682 -342252
832781295760133632 185861 151097 167681 -342212
832781295778344192 185557 150756 167665 -342220
832781295796554880 185186 150408 167705 -342236
832781295814765568 184787 149994 167666 -342215
832781295832976128 184542 149732 167724 -342211
832781295851186816 184141 149363 167698 -342302
832781295869397376 183909 149137 167708 -342276
832781295887608064 183742 148950 167728 -342171
832781295905818624 183662 148860 167752 -342254
832781295924029312 183589 148760 167750 -342262
832781295942240000 183542 148759 167709 -342276
832781295960450560 183670 148876 167678 -342244
832781295978661248 183977 149137 167669 -342234
832781295996871808 184130 149290 167623 -342255
832781296015082496 184253 149491 167662 -342288
832781296033293184 184458 149641 167665 -342310
832781296051503754 184609 149856 167677 -342209
832781296069714176 184791 149935 167702 -342245
832781296087924608 184840 150015 167707 -342233
832781296106134912 184899 150153 167736 -342223
832781296124345344 184933 150161 167684 -342300
832781296142555648 185004 150218 167729 -342225
832781296160766080 184965 150227 167735 -342246
832781296178976512 184961 150177 167670 -342256
832781296197186816 185056 150259 167694 -342239
832781296215397248 185123 150341 167733 -342268
832781296233607552 185218 150414 167728 -342273
832781296251817984 185387 150566 167694 -342294
832781296270028416 185551 150755 167643 -342287
832781296288238720 185884 151065 167725 -342250
832781296306449152 186006 151225 167709 -342247
832781296324659456 186177 151358 167720 -342302
832781296342869888 186282 151560 167690 -342294
832781296361080320 186472 151729 167750 -342238
832781296379290624 186396 151613 167690 -342206
832781296397501056 186211 151419 167707 -342222
832781296415711360 186071 151249 167751 -342211
832781296433921792 185771 150938 167709 -342178
832781296452132224 185406 150604 167683 -342237
832781296470342528 185097 150311 167705 -342198
832781296488552960 184694 149921 167679 -342273
832781296506763264 184379 149614 167674 -342277
832781296524973696 184124 149273 167712 -342269
832781296543184128 183886 149038 167695 -342278
832781296561394432 183766 148888 167713 -342268
832781296579604864 183669 148843 167710 -342235
832781296597815168 183598 148777 167694 -342219
832781296616025600 183681 148794 167656 -342272
832781296634236032 183806 148913 167662 -342289
832781296652446336 183970 149173 167711 -342247
832781296670656768 184130 149339 167692 -342235
832781296688867072 184321 149543 167726 -342252
832781296707077504 184525 149694 167708 -342252
832781296725287936 184719 149844 167688 -342270
832781296743498240 184801 150042 167717 -342180
832781296761708672 184894 150147 167658 -342211
832781296779919104 184929 150236 167720 -342243
832781296798129408 184940 150132 167670 -342302
832781296816339762 184958 150212 167728 -342253
832781296834549632 185014 150221 167677 -342263
832781296852759552 185044 150214 167644 -342288
832781296870969472 185055 150270 167711 -342257
832781296889179520 185153 150385 167626 -342319
832781296907389440 185234 150483 167647 -342319
832781296925599360 185458 150619 167648 -342297
832781296943809280 185680 150852 167667 -342265
832781296962019200 185858 151103 167699 -342218
832781296980229248 186081 151320 167708 -342238
832781296998439168 186309 151489 167755 -342205
832781297016649088 186431 151664 167739 -342214
832781297034859008 186405 151686 167691 -342231
832781297053068928 186358 151621 167714 -342183
832781297071278976 186249 151443 167751 -342232
832781297089488896 185995 151205 167722 -342240
832781297107698816 185606 150809 167699 -342233
832781297125908736 185310 150503 167753 -342245
832781297144118656 184924 150140 167724 -342205
832781297162328704 184550 149796 167738 -342268
832781297180538624 184231 149476 167728 -342226
832781297198748544 183958 149168 167697 -342285
832781297216958464 183758 148967 167697 -342246
832781297235168384 183726 148885 167731 -342221
832781297253378432 183584 148800 167668 -342260
832781297271588352 183686 148889 167776 -342267
832781297289798272 183829 148967 167727 -342228
832781297308008192 183850 149089 167713 -342237
832781297326218112 184041 149250 167735 -342225
832781297344428160 184218 149405 167715 -342286
832781297362638080 184421 149592 167719 -342262
832781297380848000 184604 149795 167760 -342250
832781297399057920 184724 149999 167692 -342253
832781297417267840 184892 150106 167743 -342220
832781297435477888 184863 150155 167681 -342219
832781297453687808 184936 150178 167684 -342245
832781297471897728 184942 150199 167727 -342238
832781297490107648 184967 150160 167765 -342246
832781297508317568 185008 150177 167681 -342313
832781297526527616 185010 150195 167703 -342266
832781297544737536 185091 150303 167712 -342295
832781297562947456 185213 150445 167748 -342277
832781297581157466 185357 150600 167735 -342259
832781297599368448 185509 150742 167735 -342268
832781297617579392 185719 150936 167725 -342271
832781297635790336 185969 151161 167693 -342293
832781297654001280 186163 151367 167727 -342291
832781297672212096 186295 151523 167711 -342262
832781297690423040 186401 151668 167697 -342281
832781297708633984 186442 151652 167658 -342253
832781297726844928 186336 151543 167688 -342290
832781297745055872 186124 151315 167666 -342247
832781297763266816 185813 151035 167738 -342260
832781297781477760 185532 150661 167684 -342259
832781297799688576 185181 150352 167712 -342301
832781297817899520 184800 150021 167726 -342196
832781297836110464 184416 149642 167713 -342267
832781297854321408 184095 149336 167705 -342269
832781297872532352 183950 149088 167718 -342259
832781297890743296 183732 148934 167711 -342276
832781297908954240 183624 148858 167704 -342243
832781297927165184 183563 148820 167744 -342289
832781297945376000 183706 148841 167745 -342220
832781297963586944 183870 148942 167705 -342254
832781297981797888 183927 149152 167716 -342278
832781298000008832 184166 149372 167758 -342274
832781298018219776 184293 149505 167656 -342308
832781298036430720 184464 149656 167733 -342225
832781298054641664 184640 149833 167719 -342242
832781298072852480 184796 150037 167715 -342274
832781298091063424 184845 150037 167658 -342245
832781298109274368 184921 150119 167661 -342225
832781298127485312 184957 150177 167637 -342261
832781298145696256 185019 150227 167678 -342247
832781298163907200 184991 150206 167692 -342223
832781298182118144 185068 150173 167701 -342227
832781298200328960 185094 150263 167665 -342261
832781298218539904 185125 150325 167718 -342283
832781298236750848 185282 150451 167727 -342244
832781298254961792 185469 150645 167752 -342267
832781298273172736 185650 150854 167643 -342234
832781298291383680 185839 151040 167702 -342262
832781298309594624 186063 151307 167691 -342266
832781298327805568 186217 151392 167725 -342248
832781298346016376 186462 151547 167712 -342262
832781298364228736 186431 151643 167682 -342302
832781298382441088 186373 151592 167653 -342283
832781298400653312 186279 151512 167776 -342205
832781298418865664 186009 151228 167677 -342246
832781298437078016 185738 151004 167704 -342290
832781298455290240 185378 150585 167738 -342279
832781298473502592 184997 150236 167701 -342284
832781298491714944 184599 149889 167693 -342260
832781298509927168 184388 149591 167745 -342204
832781298528139520 184042 149302 167676 -342236
832781298546351744 183831 149066 167712 -342264
832781298564564096 183686 148908 167783 -342226
832781298582776448 183619 148804 167742 -342251
832781298600988672 183698 148850 167741 -342226
832781298619201024 183680 148930 167686 -342261
832781298637413376 183857 149023 167703 -342250
832781298655625600 183990 149230 167703 -342245
832781298673837952 184191 149417 167718 -342242
832781298692050304 184312 149566 167670 -342317
832781298710262528 184574 149870 167738 -342260
832781298728474880 184675 149943 167707 -342308
832781298746687232 184807 150099 167739 -342273
832781298764899456 184887 150169 167710 -342274
832781298783111808 184925 150181 167768 -342234
832781298801324160 185006 150254 167737 -342252
832781298819536384 185018 150248 167697 -342209
832781298837748736 185049 150249 167687 -342204
832781298855960960 185047 150220 167678 -342229
832781298874173312 185114 150346 167707 -342213
832781298892385664 185184 150434 167688 -342214
832781298910597888 185288 150519 167643 -342203
832781298928810240 185453 150673 167570 -342257
832781298947022592 185667 150894 167688 -342290
832781298965234816 185881 151166 167737 -342230
832781298983447168 186091 151354 167732 -342259
832781299001659520 186301 151515 167748 -342215
832781299019871744 186411 151630 167694 -342255
832781299038084096 186454 151644 167750 -342239
832781299056296448 186369 151567 167741 -342278
832781299074508672 186188 151398 167688 -342305
832781299092721024 185939 151141 167678 -342270
832781299110933260 185579 150821 167640 -342284
832781299129144832 185274 150528 167714 -342296
832781299147356416 184835 150086 167714 -342213
832781299165568128 184548 149754 167709 -342291
832781299183779712 184177 149414 167679 -342246
832781299201991296 183961 149179 167680 -342294
832781299220202880 183782 148916 167678 -342256
832781299238414592 183632 148831 167660 -342248
832781299256626176 183549 148769 167643 -342250
832781299274837760 183648 148878 167652 -342274
832781299293049344 183683 148977 167596 -342325
832781299311261056 183945 149112 167691 -342256
832781299329472640 184080 149269 167684 -342247
832781299347684224 184319 149529 167684 -342259
832781299365895808 184497 149660 167679 -342282
832781299384107520 184701 149861 167695 -342230
832781299402319104 184796 149991 167714 -342244
832781299420530688 184872 150088 167700 -342230
832781299438742272 184898 150136 167705 -342267
832781299456953984 184921 150145 167705 -342303
832781299475165568 184949 150138 167682 -342233
832781299493377152 184998 150199 167697 -342280
832781299511588736 184976 150219 167598 -342285
832781299529800448 185014 150277 167610 -342286
832781299548012032 185138 150310 167682 -342238
832781299566223616 185247 150432 167715 -342279
832781299584435200 185452 150587 167683 -342253
832781299602646912 185573 150826 167660 -342266
832781299620858496 185797 151012 167641 -342270
832781299639070080 185989 151233 167641 -342310
832781299657281664 186195 151438 167698 -342282
832781299675493376 186347 151585 167656 -342295
832781299693704960 186466 151628 167705 -342271
832781299711916544 186426 151659 167674 -342300
832781299730128128 186254 151495 167619 -342307
832781299748339840 186059 151260 167649 -342346
832781299766551424 185780 150971 167646 -342348
832781299784763008 185516 150668 167718 -342257
832781299802974592 185114 150381 167734 -342240
832781299821186304 184779 149967 167694 -342192
832781299839397888 184493 149664 167693 -342268
832781299857609472 184140 149290 167683 -342236
832781299875821152 183887 149029 167703 -342299
832781299894032768 183709 148934 167718 -342284
832781299912244352 183556 148832 167663 -342268
832781299930456064 183566 148850 167680 -342257
832781299948667648 183655 148902 167705 -342295
832781299966879232 183814 149084 167730 -342208
832781299985090816 183953 149185 167734 -342227
832781300003302528 184091 149375 167705 -342314
832781300021514112 184338 149580 167653 -342308
832781300039725696 184523 149760 167663 -342217
832781300057937280 184708 149888 167653 -342260
832781300076148992 184945 150098 167719 -342215
832781300094360576 184979 150123 167697 -342274
832781300112572160 185008 150174 167709 -342233
832781300130783744 185050 150238 167642 -342267
832781300148995456 184996 150177 167709 -342298
832781300167207040 185037 150286 167722 -342246
832781300185418624 185097 150287 167755 -342233
832781300203630208 185114 150316 167710 -342305
832781300221841920 185168 150470 167721 -342253
832781300240053504 185374 150516 167686 -342287
832781300258265088 185499 150687 167699 -342288
832781300276476672 185696 150897 167679 -342279
832781300294688384 185938 151090 167703 -342255
832781300312899968 186119 151332 167707 -342283
832781300331111552 186280 151515 167703 -342300
832781300349323136 186442 151658 167673 -342274
832781300367534848 186504 151689 167693 -342243
832781300385746432 186498 151604 167747 -342271
832781300403958016 186330 151489 167733 -342196
832781300422169600 186093 151191 167730 -342205
832781300440381312 185716 150874 167690 -342262
832781300458592896 185376 150562 167718 -342217
832781300476804480 184952 150162 167622 -342293
832781300495016064 184631 149883 167726 -342287
832781300513227776 184364 149548 167679 -342289
832781300531439360 184104 149272 167669 -342274
832781300549650944 183850 149077 167673 -342301
832781300567862528 183721 148911 167652 -342318
832781300586074240 183648 148857 167662 -342298
832781300604285824 183691 148902 167679 -342303
832781300622497408 183712 148921 167658 -342374
832781300640709044 183912 149143 167742 -342308
832781300658920576 184079 149322 167704 -342291
832781300677132160 184348 149513 167728 -342213
832781300695343872 184522 149727 167702 -342202
832781300713555456 184626 149855 167676 -342300
832781300731767040 184825 149984 167701 -342293
832781300749978624 184948 150100 167680 -342305
832781300768190336 184993 150174 167695 -342273
832781300786401920 185043 150218 167671 -342266
832781300804613504 185047 150228 167721 -342225
832781300822825088 185133 150281 167745 -342201
832781300841036800 181917 147280 167768 -342225
832781300859248384 184151 149425 167691 -342201
832781300877459968 185306 150519 167682 -342238
832781300895671552 186125 151337 167686 -342216
832781300913883264 186647 151837 167688 -342291
832781300932094848 187052 152256 167705 -342269
832781300950306432 187333 152546 167707 -342236
832781300968518016 187721 152853 167748 -342315
832781300986729728 188035 153146 167712 -342282
832781301004941312 188253 153352 167725 -342188
832781301023152896 188399 153528 167692 -342150
832781301041364480 188371 153576 167693 -342235
832781301059576192 188273 153481 167695 -342298
832781301077787776 188086 153281 167726 -342222
832781301095999360 187741 152907 167657 -342212
832781301114210944 187356 152513 167690 -342187
832781301132422656 186945 152108 167714 -342200
832781301150634240 186455 151689 167697 -342247
832781301168845824 186097 151253 167696 -342230
832781301187057534 185664 150841 167722 -342278
832781301205267712 185421 150585 167747 -342222
832781301223477888 185220 150423 167752 -342214
832781301241688064 184970 150187 167750 -342266
832781301259898368 184829 150020 167670 -342295
832781301278108544 184839 150062 167709 -342269
832781301296318720 184947 150156 167698 -342288
832781301314528896 185097 150384 167730 -342312
832781301332739072 185347 150557 167779 -342240
832781301350949248 185564 150772 167748 -342312
832781301369159552 185803 150986 167759 -342240
832781301387369728 186015 151154 167701 -342268
832781301405579904 186087 151278 167653 -342255
832781301423790080 186087 151366 167698 -342304
832781301442000256 186156 151372 167743 -342239
832781301460210560 186190 151365 167683 -342231
832781301478420736 186155 151340 167667 -342262
832781301496630912 186132 151327 167696 -342319
832781301514841088 186115 151349 167705 -342308
832781301533051264 186205 151364 167697 -342288
832781301551261440 186289 151423 167690 -342320
832781301569471744 186305 151553 167682 -342283
832781301587681920 186500 151706 167731 -342265
832781301605892096 186714 151833 167670 -342273
832781301624102272 186846 152095 167742 -342238
832781301642312448 187096 152305 167709 -342269
832781301660522752 187325 152552 167703 -342282
832781301678732928 187571 152738 167764 -342256
832781301696943104 187577 152845 167712 -342271
832781301715153280 187560 152745 167747 -342329
832781301733363456 187443 152653 167727 -342298
832781301751573760 187176 152370 167728 -342254
832781301769783936 186763 151988 167648 -342317
832781301787994112 186438 151626 167727 -342270
832781301806204288 186075 151261 167748 -342264
832781301824414464 185624 150852 167665 -342230
832781301842624640 185292 150516 167714 -342244
832781301860834944 184891 150086 167718 -342237
832781301879045120 184620 149940 167721 -342284
832781301897255296 184518 149755 167694 -342286
832781301915465472 184443 149675 167703 -342305
832781301933675648 184445 149697 167732 -342270
832781301951885914 184451 149731 167684 -342287
832781301970097536 184651 149881 167732 -342269
832781301988309120 184860 150076 167688 -342315
832781302006520704 185104 150311 167698 -342257
832781302024732288 185319 150537 167671 -342271
832781302042943872 185489 150706 167610 -342298
832781302061155456 185714 150948 167739 -342266
832781302079367040 185836 150973 167671 -342303
832781302097578624 185900 151049 167664 -342278
832781302115790208 185909 151130 167707 -342238
832781302134001792 185927 151136 167666 -342296
832781302152213376 185969 151161 167675 -342269
832781302170424960 186025 151205 167670 -342264
832781302188636544 186076 151276 167756 -342247
832781302206848128 186076 151293 167709 -342276
832781302225059712 186192 151412 167685 -342247
832781302243271296 186366 151576 167750 -342276
832781302261482880 186570 151673 167700 -342198
832781302279694464 186802 151905 167748 -342212
832781302297905920 187033 152159 167695 -342274
832781302316117504 187257 152368 167676 -342263
832781302334329088 187435 152583 167676 -342300
832781302352540672 187582 152709 167727 -342236
832781302370752256 187609 152812 167729 -342209
832781302388963840 187539 152726 167726 -342243
832781302407175424 187343 152565 167753 -342214
832781302425387008 187125 152304 167710 -342260
832781302443598592 186739 151873 167751 -342180
832781302461810176 186318 151510 167692 -342251
832781302480021760 185909 151108 167676 -342267
832781302498233344 185552 150760 167677 -342210
832781302516444928 185184 150389 167691 -342316
832781302534656512 184902 150123 167708 -342281
832781302552868096 184660 149864 167693 -342277
832781302571079680 184521 149760 167721 -342276
832781302589291264 184482 149661 167709 -342316
832781302607502848 184474 149661 167711 -342270
832781302625714432 184588 149755 167650 -342370
832781302643926016 184833 149942 167733 -342295
832781302662137600 184962 150152 167667 -342263
832781302680349184 185243 150436 167773 -342236
832781302698560768 185412 150593 167683 -342263
832781302716772292 185654 150795 167719 -342278
832781302734984704 185787 150955 167727 -342254
832781302753197056 185934 151045 167768 -342255
832781302771409408 186050 151177 167737 -342212
832781302789621760 186052 151151 167713 -342294
832781302807834112 186064 151198 167737 -342238
832781302826046464 186103 151288 167736 -342245
832781302844258816 186042 151246 167699 -342242
832781302862471168 186093 151235 167683 -342272
832781302880683392 186125 151345 167724 -342266
832781302898895744 186251 151446 167678 -342280
832781302917108096 186568 151724 167785 -342251
832781302935320448 186698 151932 167769 -342269
832781302953532800 186909 152073 167681 -342304
832781302971745152 187098 152334 167660 -342313
832781302989957504 187325 152498 167664 -342277
832781303008169856 187548 152745 167697 -342232
832781303026382208 187664 152817 167729 -342291
832781303044594560 187634 152785 167751 -342254
832781303062806912 187454 152659 167667 -342201
832781303081019264 187227 152398 167663 -342186
832781303099231616 186912 152148 167708 -342225
832781303117443968 186604 151780 167714 -342223
832781303135656192 186162 151371 167666 -342298
832781303153868544 185737 150956 167677 -342233
832781303172080896 185344 150533 167678 -342310
832781303190293248 184989 150193 167614 -342355
832781303208505600 184808 149987 167731 -342267
832781303226717952 184611 149796 167680 -342272
832781303244930304 184514 149750 167669 -342262
832781303263142656 184520 149750 167683 -342257
832781303281355008 184551 149751 167716 -342281
832781303299567360 184688 149879 167687 -342222
832781303317779712 184885 150119 167688 -342324
832781303335992064 185063 150313 167701 -342248
832781303354204416 185358 150467 167673 -342264
832781303372416768 185526 150714 167674 -342269
832781303390628992 185740 150913 167696 -342263
832781303408841344 185841 151049 167656 -342290
832781303427053696 185992 151151 167667 -342265
832781303445266048 185964 151211 167650 -342254
832781303463478400 186030 151224 167718 -342276
832781303481690702 186092 151291 167763 -342223
832781303499902208 186123 151267 167705 -342244
832781303518113664 186127 151236 167729 -342259
832781303536325120 186198 151373 167700 -342242
832781303554536576 186291 151455 167735 -342236
832781303572747904 186384 151600 167694 -342238
832781303590959360 186604 151763 167730 -342269
832781303609170816 186790 152000 167647 -342236
832781303627382272 187018 152225 167675 -342253
832781303645593728 187303 152506 167733 -342256
832781303663805184 187427 152590 167681 -342303
832781303682016512 187608 152804 167677 -342314
832781303700227968 187785 152890 167759 -342251
832781303718439424 187620 152830 167733 -342297
832781303736650880 187458 152653 167714 -342299
832781303754862336 187210 152447 167752 -342232
832781303773073792 186892 152109 167758 -342217
832781303791285120 186508 151670 167693 -342226
832781303809496576 186101 151322 167802 -342240
832781303827708032 185681 150846 167674 -342225
832781303845919488 185305 150485 167701 -342217
832781303864130944 185003 150156 167743 -342209
832781303882342400 184731 149994 167720 -342266
832781303900553728 184567 149797 167704 -342251
832781303918765184 184534 149738 167746 -342182
832781303936976640 184538 149762 167702 -342221
832781303955188096 184662 149904 167707 -342223
832781303973399552 184781 149991 167720 -342212
832781303991611008 185113 150315 167670 -342233
832781304009822336 185302 150486 167714 -342230
832781304028033792 185403 150572 167676 -342298
832781304046245248 185612 150835 167719 -342249
832781304064456704 185777 151024 167675 -342294
832781304082668160 185959 151109 167683 -342276
832781304100879616 186053 151159 167696 -342287
832781304119090944 186089 151259 167719 -342286
832781304137302400 186111 151385 167726 -342246
832781304155513856 186104 151322 167716 -342255
832781304173725312 186096 151371 167742 -342271
832781304191936768 186129 151335 167764 -342240
832781304210148224 186248 151430 167756 -342242
832781304228359552 186358 151536 167733 -342254
832781304246570964 186485 151659 167688 -342250
832781304264782080 186695 151904 167751 -342235
832781304282993152 186948 152163 167735 -342225
832781304301204224 187172 152330 167700 -342236
832781304319415296 187431 152545 167704 -342255
832781304337626368 187586 152756 167671 -342287
832781304355837440 187781 152870 167755 -342214
832781304374048512 187816 152955 167767 -342232
832781304392259584 187659 152869 167709 -342249
832781304410470656 187424 152661 167698 -342285
832781304428681728 187097 152236 167668 -342256
832781304446892800 186740 151902 167725 -342256
832781304465103872 186336 151511 167716 -342266
832781304483314944 185927 151105 167675 -342262
832781304501526016 185663 150847 167722 -342235
832781304519737088 185222 150374 167690 -342229
832781304537948160 184924 150088 167727 -342290
832781304556159232 184758 149924 167729 -342259
832781304574370304 184596 149771 167715 -342314
832781304592581376 184599 149751 167749 -342225
832781304610792448 184621 149799 167632 -342301
832781304629003520 184726 149941 167702 -342337
832781304647214592 184885 150123 167697 -342267
832781304665425664 185076 150362 167725 -342269
832781304683636736 185267 150497 167693 -342227
832781304701847808 185472 150750 167688 -342264
832781304720058880 185703 150959 167749 -342265
832781304738269952 185876 151101 167729 -342230
832781304756481024 185961 151147 167732 -342237
832781304774692096 186071 151227 167783 -342249
832781304792903168 186128 151270 167759 -342246
832781304811114240 186140 151285 167703 -342225
832781304829325312 186110 151289 167722 -342247
832781304847536384 186135 151339 167721 -342229
832781304865747456 186155 151420 167711 -342240
832781304883958528 186362 151471 167727 -342168
832781304902169600 186426 151585 167663 -342204
832781304920380672 186582 151813 167720 -342200
832781304938591744 186817 152013 167711 -342186
832781304956802816 187064 152204 167695 -342251
832781304975013888 187348 152425 167679 -342281
832781304993224960 187497 152595 167671 -342306
832781305011435968 187740 152932 167734 -342332
832781305029646208 187773 152885 167743 -342269
832781305047856384 187713 152888 167719 -342243
832781305066066560 187536 152707 167728 -342247
832781305084276736 187342 152512 167712 -342226
832781305102486912 186964 152154 167720 -342252
832781305120697088 186600 151765 167718 -342243
832781305138907136 186173 151366 167715 -342273
832781305157117312 185706 150941 167649 -342245
832781305175327488 185396 150613 167682 -342288
832781305193537664 185102 150290 167745 -342279
832781305211747840 184859 149989 167722 -342234
832781305229958016 184714 149847 167768 -342267
832781305248168192 184583 149838 167771 -342223
832781305266378368 184644 149792 167711 -342233
832781305284588544 184705 149908 167755 -342206
832781305302798720 184887 150034 167717 -342203
832781305321008768 185049 150111 167713 -342274
832781305339218944 185216 150446 167743 -342246
832781305357429120 185431 150645 167692 -342271
832781305375639296 185662 150877 167698 -342164
832781305393849472 185813 151025 167687 -342232
832781305412059648 185956 151091 167662 -342263
832781305430269824 186069 151186 167687 -342259
832781305448480000 186104 151228 167745 -342289
832781305466690176 186112 151204 167663 -342269
832781305484900352 186156 151263 167712 -342279
832781305503110400 186138 151295 167676 -342255
832781305521320576 186129 151322 167726 -342288
832781305539530752 186191 151422 167756 -342259
832781305557740928 186295 151577 167718 -342255
832781305575951104 186508 151683 167695 -342253
832781305594161280 186656 151840 167685 -342229
832781305612371456 186914 152055 167696 -342212
832781305630581632 187103 152284 167665 -342265
832781305648791808 187428 152535 167705 -342250
832781305667001984 187568 152739 167711 -342270
832781305685212032 187735 152945 167766 -342250
832781305703422208 187757 152944 167703 -342264
832781305721632384 187675 152872 167772 -342251
832781305739842560 187519 152705 167789 -342223
832781305758052736 187197 152423 167719 -342254
832781305776262824 186907 152129 167751 -342233
832781305794473728 186439 151670 167684 -342233
832781305812684672 186034 151239 167731 -342259
832781305830895488 185697 150892 167741 -342264
832781305849106432 185349 150508 167755 -342225
832781305867317248 184998 150126 167737 -342254
832781305885528192 184792 149955 167711 -342229
832781305903739008 184610 149768 167741 -342276
832781305921949952 184624 149753 167798 -342186
832781305940160896 184586 149815 167695 -342251
832781305958371712 184671 149898 167732 -342238
832781305976582656 184874 150168 167714 -342223
832781305994793472 185037 150322 167766 -342234
832781306013004416 185329 150522 167738 -342233
832781306031215360 185525 150754 167699 -342246
832781306049426176 185712 150905 167752 -342206
832781306067637120 185887 151048 167721 -342245
832781306085847936 185986 151173 167661 -342268
832781306104058880 186017 151213 167741 -342243
832781306122269696 186063 151289 167730 -342216
832781306140480640 186077 151335 167776 -342221
832781306158691584 186122 151307 167699 -342284
832781306176902400 186154 151341 167745 -342250
832781306195113344 186170 151392 167720 -342273
832781306213324160 186273 151448 167726 -342251
832781306231535104 186438 151594 167646 -342255
832781306249745920 186644 151772 167734 -342261
832781306267956864 186790 151958 167717 -342271
832781306286167808 186968 152166 167670 -342265
832781306304378624 187256 152397 167709 -342299
832781306322589568 187452 152659 167666 -342262
832781306340800384 187670 152796 167684 -342264
832781306359011328 187795 153025 167747 -342221
832781306377222144 187732 152917 167690 -342311
832781306395433088 187600 152800 167688 -342260
832781306413644032 187411 152567 167679 -342256
832781306431854848 187120 152316 167778 -342233
832781306450065792 186691 151865 167767 -342248
832781306468276608 186307 151463 167685 -342250
832781306486487552 185995 151190 167710 -342270
832781306504698496 185504 150732 167698 -342246
832781306522909312 185154 150318 167773 -342299
832781306541120198 184853 150040 167749 -342310
832781306559330688 184719 149916 167688 -342266
832781306577541120 184553 149778 167670 -342277
832781306595751552 184553 149723 167677 -342214
832781306613961984 184619 149796 167694 -342315
832781306632172416 184754 149976 167667 -342254
832781306650382720 184932 150066 167718 -342250
832781306668593152 185112 150307 167661 -342286
832781306686803584 185393 150514 167688 -342335
832781306705014016 185591 150776 167733 -342335
832781306723224448 185811 150959 167732 -342249
832781306741434880 185878 151089 167701 -342328
832781306759645312 186012 151116 167679 -342356
832781306777855744 186050 151278 167691 -342246
832781306796066176 186095 151266 167683 -342285
832781306814276480 186106 151306 167767 -342339
832781306832486912 186096 151285 167754 -342279
832781306850697344 186161 151356 167702 -342290
832781306868907776 186258 151382 167712 -342238
832781306887118208 186336 151516 167772 -342271
832781306905328640 186449 151618 167704 -342233
832781306923539072 186613 151834 167769 -342229
832781306941749504 186808 152039 167773 -342237
832781306959959936 187065 152278 167760 -342216
832781306978170240 187359 152479 167735 -342259
832781306996380672 187493 152676 167732 -342298
832781307014591104 187736 152899 167737 -342288
832781307032801536 187773 152900 167712 -342263
832781307051011968 187657 152899 167699 -342319
832781307069222400 187569 152701 167748 -342242
832781307087432832 187243 152488 167716 -342279
832781307105643264 186975 152140 167738 -342252
832781307123853568 186540 151747 167745 -342215
832781307142064000 186128 151305 167690 -342263
832781307160274432 185750 150937 167734 -342234
832781307178484864 185394 150593 167744 -342279
832781307196695296 185066 150280 167727 -342256
832781307214905728 184784 150003 167704 -342243
832781307233116160 184624 149839 167754 -342293
832781307251326592 184542 149763 167716 -342312
832781307269537024 184566 149779 167683 -342267
832781307287747328 184676 149882 167707 -342277
832781307305957734 184813 149968 167711 -342234
832781307324169088 185044 150303 167759 -342177
832781307342380416 185202 150442 167669 -342278
832781307360591872 185478 150633 167685 -342294
832781307378803200 185634 150835 167698 -342256
832781307397014528 185851 150991 167640 -342290
832781307415225856 185987 151124 167684 -342308
832781307433437312 186036 151191 167618 -342304
832781307451648640 186105 151294 167707 -342271
832781307469859968 186087 151373 167657 -342245
832781307488071296 186055 151284 167739 -342293
832781307506282752 186105 151286 167725 -342269
832781307524494080 186173 151387 167719 -342319
832781307542705408 186260 151417 167732 -342280
832781307560916736 186339 151507 167702 -342276
832781307579128192 186480 151627 167716 -342295
832781307597339520 186659 151849 167692 -342300
832781307615550848 186931 152127 167614 -342270
832781307633762304 187201 152375 167726 -342238
832781307651973632 187443 152601 167730 -342238
832781307670184960 187614 152761 167733 -342236
832781307688396288 187773 152908 167769 -342216
832781307706607744 187714 152961 167690 -342264
832781307724819072 187667 152807 167732 -342271
832781307743030400 187383 152608 167720 -342307
832781307761241728 187150 152368 167728 -342261
832781307779453184 186714 151915 167752 -342298
832781307797664512 186373 151593 167719 -342238
832781307815875840 185917 151122 167665 -342327
832781307834087168 185588 150777 167726 -342321
832781307852298624 185277 150388 167736 -342215
832781307870509952 184933 150127 167754 -342290
832781307888721280 184769 149920 167708 -342221
832781307906932736 184654 149784 167705 -342235
832781307925144064 184566 149748 167743 -342248
832781307943355392 184589 149788 167691 -342261
832781307961566720 184754 149977 167728 -342254
832781307979778176 184890 150044 167670 -342260
832781307997989504 185126 150349 167718 -342225
832781308016200832 185412 150665 167650 -342267
832781308034412160 185567 150820 167671 -342227
832781308052623616 185755 150975 167679 -342220
832781308070834946 185961 151083 167761 -342268
832781308089045248 186054 151150 167728 -342327
832781308107255552 186138 151265 167693 -342238
832781308125465856 186153 151284 167678 -342225
832781308143676032 186140 151341 167702 -342280
832781308161886336 186170 151318 167738 -342242
832781308180096640 186207 151363 167769 -342221
832781308198306944 186228 151406 167718 -342280
832781308216517120 186212 151467 167650 -342303
832781308234727424 186462 151583 167733 -342291
832781308252937728 186544 151768 167677 -342279
832781308271148032 186738 152016 167659 -342265
832781308289358208 187002 152227 167675 -342283
832781308307568512 187257 152474 167677 -342268
832781308325778816 187495 152626 167739 -342238
832781308343989120 187653 152826 167658 -342278
832781308362199296 187787 152943 167692 -342223
832781308380409600 187746 152880 167752 -342236
832781308398619904 187579 152755 167732 -342250
832781308416830208 187331 152538 167715 -342260
832781308435040384 187017 152236 167751 -342265
832781308453250688 186666 151796 167697 -342218
832781308471460992 186249 151410 167806 -342212
832781308489671296 185813 151014 167729 -342272
832781308507881472 185467 150616 167742 -342222
832781308526091776 185213 150373 167708 -342234
832781308544302080 184863 150100 167677 -342228
832781308562512384 184645 149844 167679 -342254
832781308580722560 184589 149761 167703 -342297
832781308598932864 184525 149800 167675 -342249
832781308617143168 184626 149941 167686 -342242
832781308635353472 184811 150084 167715 -342271
832781308653563648 184996 150204 167710 -342286
832781308671773952 185222 150418 167645 -342303
832781308689984256 185452 150585 167667 -342274
832781308708194560 185582 150856 167724 -342239
832781308726404736 185824 151021 167687 -342232
832781308744615040 185975 151159 167722 -342277
832781308762825344 186062 151207 167687 -342274
832781308781035648 186085 151328 167737 -342251
832781308799245824 186140 151280 167710 -342293
832781308817456128 186100 151321 167711 -342306
832781308835666378 186145 151387 167718 -342231
832781308853877248 186114 151410 167671 -342245
832781308872088064 186282 151444 167743 -342260
832781308890298752 186376 151507 167737 -342220
832781308908509568 186464 151681 167701 -342247
832781308926720384 186687 151845 167653 -342330
832781308944931200 186936 152069 167701 -342284
832781308963141888 187128 152290 167669 -342303
832781308981352704 187302 152534 167721 -342216
832781308999563520 187596 152756 167690 -342236
832781309017774336 187726 152901 167724 -342249
832781309035985024 187721 152951 167681 -342260
832781309054195840 187734 152832 167713 -342256
832781309072406656 187551 152685 167674 -342264
832781309090617344 187241 152354 167722 -342286
832781309108828160 186956 152064 167731 -342273
832781309127038976 186500 151661 167728 -342287
832781309145249792 186037 151224 167711 -342271
832781309163460480 185652 150859 167724 -342277
832781309181671296 185309 150477 167710 -342291
832781309199882112 185020 150167 167682 -342259
832781309218092928 184716 149885 167658 -342331
832781309236303616 184611 149766 167716 -342325
832781309254514432 184648 149735 167735 -342276
832781309272725248 184620 149798 167721 -342213
832781309290935936 184689 149933 167724 -342255
832781309309146752 184835 150076 167754 -342293
832781309327357568 185085 150240 167692 -342261
832781309345568384 185244 150480 167694 -342278
832781309363779072 185505 150683 167701 -342306
832781309381989888 185640 150847 167725 -342263
832781309400200704 185893 151049 167741 -342295
832781309418411520 185979 151158 167747 -342297
832781309436622208 186047 151216 167648 -342346
832781309454833024 186083 151263 167647 -342269
832781309473043840 186143 151330 167680 -342288
832781309491254528 186130 151291 167678 -342271
832781309509465344 186154 151328 167724 -342238
832781309527676160 186192 151366 167668 -342240
832781309545886976 186248 151505 167710 -342287
832781309564097664 186436 151590 167721 -342276
832781309582308480 186495 151726 167665 -342308
832781309600519176 186725 151924 167744 -342302
832781309618730112 186933 152201 167731 -342261
832781309636941056 187211 152442 167731 -342193
832781309655151872 187392 152644 167649 -342262
832781309673362816 187620 152840 167681 -342318
832781309691573632 187705 152932 167703 -342291
832781309709784576 187707 152867 167686 -342312
832781309727995392 187594 152758 167681 -342306
832781309746206336 187340 152515 167692 -342303
832781309764417280 187031 152275 167719 -342262
832781309782628096 186725 151899 167704 -342269
832781309800839040 186294 151481 167721 -342296
832781309819049856 185851 151099 167729 -342313
832781309837260800 185513 150727 167738 -342267
832781309855471744 185181 150378 167712 -342250
832781309873682560 184919 150053 167696 -342290
832781309891893504 184737 149862 167707 -342307
832781309910104320 184569 149787 167734 -342277
832781309928315264 184553 149736 167701 -342303
832781309946526080 184660 149891 167766 -342250
832781309964737024 184798 149986 167709 -342244
832781309982947968 184977 150171 167750 -342271
832781310001158784 185276 150399 167721 -342297
832781310019369728 185503 150587 167695 -342306
832781310037580544 185594 150785 167733 -342249
832781310055791488 185768 150970 167720 -342272
832781310074002304 185935 151038 167709 -342276
832781310092213248 186028 151164 167705 -342285
832781310110424192 186062 151273 167716 -342273
832781310128635008 186080 151300 167736 -342259
832781310146845952 186088 151327 167717 -342299
832781310165056768 186165 151327 167714 -342277
832781310183267712 186155 151337 167719 -342282
832781310201478656 186251 151440 167668 -342277
832781310219689472 186326 151534 167714 -342257
832781310237900416 186415 151601 167712 -342251
832781310256111232 186617 151796 167682 -342280
832781310274322176 186804 152017 167726 -342235
832781310292532992 187146 152277 167728 -342276
832781310310743936 187322 152490 167736 -342317
832781310328954880 187563 152724 167751 -342312
832781310347165696 187701 152891 167697 -342228
832781310365376560 187732 152949 167624 -342304
832781310383587456 187724 152918 167668 -342276
832781310401798400 187519 152722 167683 -342277
832781310420009216 187347 152516 167725 -342265
832781310438220160 186931 152107 167720 -342274
832781310456430976 186527 151700 167661 -342257
832781310474641920 186141 151342 167665 -342222
832781310492852736 185761 150912 167643 -342279
832781310511063680 185332 150549 167618 -342247
832781310529274624 185109 150254 167739 -342240
832781310547485440 184783 150028 167727 -342281
832781310565696384 184695 149848 167652 -342237
832781310583907200 184643 149779 167700 -342239
832781310602118144 184550 149769 167676 -342297
832781310620329088 184690 149937 167681 -342221
832781310638539904 184877 150057 167685 -342220
832781310656750848 185048 150267 167696 -342291
832781310674961664 185261 150466 167697 -342251
832781310693172608 185426 150628 167669 -342261
832781310711383424 185617 150856 167645 -342252
832781310729594368 185848 150991 167718 -342240
832781310747805312 185922 151156 167721 -342223
832781310766016128 186080 151232 167724 -342282
832781310784227072 186143 151274 167609 -342286
832781310802437888 186138 151301 167677 -342294
832781310820648832 186113 151387 167654 -342251
832781310838859648 186118 151314 167651 -342236
832781310857070592 186161 151342 167671 -342296
832781310875281536 186269 151444 167697 -342298
832781310893492352 186375 151543 167714 -342263
832781310911703296 186486 151647 167719 -342247
832781310929914112 186740 151953 167713 -342306
832781310948125056 186966 152112 167683 -342274
832781310966335872 187209 152356 167668 -342251
832781310984546816 187417 152601 167698 -342252
832781311002757760 187619 152765 167742 -342269
832781311020968576 187723 152917 167760 -342293
832781311039179520 187722 152944 167716 -342276
832781311057390336 187650 152839 167711 -342267
832781311075601280 187422 152589 167694 -342279
832781311093812224 187156 152339 167721 -342263
832781311112023040 186744 151891 167651 -342233
832781311130233934 186398 151614 167739 -342256
832781311148444928 185945 151249 167687 -342264
832781311166655872 185609 150790 167686 -342253
832781311184866688 185241 150472 167724 -342267
832781311203077632 184953 150167 167667 -342293
832781311221288448 184757 149913 167692 -342192
832781311239499392 184644 149811 167719 -342259
832781311257710208 184577 149788 167747 -342255
832781311275921152 184616 149775 167690 -342280
832781311294132096 184756 149854 167662 -342310
832781311312342912 184929 150091 167669 -342281
832781311330553856 185115 150271 167668 -342244
832781311348764672 185377 150520 167687 -342286
832781311366975616 185560 150772 167724 -342259
832781311385186560 185723 150963 167713 -342249
832781311403397376 185907 151066 167763 -342254
832781311421608320 186056 151197 167747 -342288
832781311439819136 186117 151297 167721 -342270
832781311458030080 186159 151296 167671 -342290
832781311476240896 186221 151449 167678 -342233
832781311494451840 186224 151447 167735 -342226
832781311512662784 186179 151356 167714 -342243
832781311530873600 186201 151325 167720 -342270
832781311549084544 186288 151503 167773 -342227
832781311567295360 186447 151614 167728 -342237
832781311585506304 186576 151808 167743 -342227
832781311603717120 186796 151976 167663 -342246
832781311621928064 187045 152239 167691 -342277
832781311640139008 187267 152426 167669 -342249
832781311658349824 187482 152676 167674 -342268
832781311676560768 187684 152820 167691 -342250
832781311694771584 187790 152949 167746 -342277
832781311712982528 187765 152858 167738 -342253
832781311731193344 187653 152772 167738 -342247
832781311749404288 187360 152543 167733 -342215
832781311767615232 187020 152245 167754 -342245
832781311785826048 186712 151862 167770 -342223
832781311804036992 186274 151441 167762 -342216
832781311822247808 185821 151000 167710 -342289
832781311840458752 185432 150658 167765 -342235
832781311858669696 185142 150367 167750 -342214
832781311876880512 184851 150083 167768 -342267
832781311895091308 184707 149906 167708 -342229
832781311913302912 184619 149833 167751 -342175
832781311931514496 184580 149757 167662 -342222
832781311949726208 184660 149844 167654 -342250
832781311967937792 184752 149980 167674 -342289
832781311986149376 184984 150220 167697 -342235
832781312004360960 185232 150446 167676 -342252
832781312022572672 185433 150622 167694 -342257
832781312040784256 185691 150821 167721 -342204
832781312058995840 185836 150992 167738 -342198
832781312077207424 185948 151135 167708 -342263
832781312095419136 186086 151284 167703 -342225
832781312113630720 186118 151277 167650 -342266
832781312131842304 186194 151349 167733 -342203
832781312150053888 186162 151294 167743 -342242
832781312168265600 186139 151311 167746 -342240
832781312186477184 186145 151305 167739 -342231
832781312204688768 186250 151444 167780 -342229
832781312222900352 186344 151557 167768 -342243
832781312241112064 186472 151666 167692 -342257
832781312259323648 186715 151853 167731 -342288
832781312277535232 186853 152021 167626 -342290
832781312295746816 187159 152311 167728 -342252
832781312313958528 187391 152562 167705 -342237
832781312332170112 187619 152772 167700 -342272
832781312350381696 187789 152852 167696 -342223
832781312368593280 187815 152899 167692 -342251
832781312386804992 187677 152853 167700 -342299
832781312405016576 187554 152732 167720 -342304
832781312423228160 187254 152383 167663 -342231
832781312441439744 186911 152088 167669 -342238
832781312459651456 186513 151740 167747 -342247
832781312477863040 186064 151278 167683 -342279
832781312496074624 185657 150869 167700 -342294
832781312514286208 185300 150595 167721 -342284
832781312532497920 184957 150208 167679 -342316
832781312550709504 184778 150019 167714 -342314
832781312568921088 184627 149899 167719 -342253
832781312587132672 184582 149810 167690 -342259
832781312605344384 184619 149830 167656 -342282
832781312623555968 184769 149906 167707 -342247
832781312641767552 184873 150105 167656 -342247
832781312659979200 185054 150303 167693 -342234
832781312678190848 185241 150485 167682 -342334
832781312696402432 185463 150665 167725 -342284
832781312714614144 185636 150843 167687 -342288
832781312732825728 185864 151067 167653 -342248
832781312751037312 186003 151137 167668 -342247
832781312769248896 186077 151277 167639 -342266
832781312787460608 186109 151318 167741 -342223
832781312805672192 186109 151338 167729 -342259
832781312823883776 186108 151341 167686 -342253
832781312842095360 186123 151397 167677 -342261
832781312860307072 186188 151412 167731 -342206
832781312878518656 186240 151457 167702 -342213
832781312896730240 186368 151574 167711 -342254
832781312914941824 186589 151710 167722 -342314
832781312933153536 186732 151883 167716 -342288
832781312951365120 186945 152173 167669 -342299
832781312969576704 187185 152415 167660 -342243
832781312987788288 187497 152680 167690 -342231
832781313006000000 187731 152925 167742 -342239
832781313024211584 187733 152936 167738 -342294
832781313042423168 187742 152950 167701 -342308
832781313060634752 187589 152751 167646 -342367
832781313078846464 187369 152625 167684 -342248
832781313097058048 187034 152255 167661 -342319
832781313115269632 186677 151903 167685 -342352
832781313133481216 186362 151498 167705 -342278
832781313151692928 185957 151169 167719 -342233
832781313169904512 185514 150681 167691 -342298
832781313188116096 185219 150357 167662 -342277
832781313206327680 184993 150103 167682 -342230
832781313224539392 184786 149907 167729 -342188
832781313242750976 184608 149741 167678 -342330
832781313260962560 184558 149741 167651 -342310
832781313279174144 184624 149785 167656 -342273
832781313297385856 184797 149959 167744 -342261
832781313315597440 184989 150110 167699 -342305
832781313333809024 185214 150396 167714 -342248
832781313352020608 185421 150528 167680 -342278
832781313370232320 185665 150765 167698 -342248
832781313388443904 185817 150972 167755 -342295
832781313406655488 185921 151067 167758 -342274
832781313424867092 185967 151152 167727 -342302
832781313443078400 186097 151214 167691 -342250
832781313461289728 186084 151232 167693 -342265
832781313479501184 186205 151312 167736 -342238
832781313497712512 186112 151339 167642 -342260
832781313515923840 186136 151374 167691 -342231
832781313534135296 186197 151382 167669 -342319
832781313552346624 186318 151451 167635 -342246
832781313570557952 186465 151597 167623 -342270
832781313588769408 186682 151831 167692 -342231
832781313606980736 186846 152088 167691 -342233
832781313625192064 187090 152301 167716 -342244
832781313643403520 187398 152561 167759 -342277
832781313661614848 187473 152746 167708 -342272
832781313679826176 187676 152918 167734 -342285
832781313698037504 187777 152953 167662 -342280
832781313716248960 187689 152860 167677 -342246
832781313734460288 187606 152732 167731 -342311
832781313752671616 187348 152578 167741 -342272
832781313770883072 187044 152170 167684 -342269
832781313789094400 186599 151816 167713 -342269
832781313807305728 186170 151303 167694 -342240
832781313825517184 185747 150966 167711 -342245
832781313843728512 185364 150661 167729 -342271
832781313861939840 185090 150291 167702 -342294
832781313880151296 184809 150021 167730 -342263
832781313898362624 184719 149870 167753 -342252
832781313916573952 184626 149752 167710 -342279
832781313934785408 184601 149742 167699 -342285
832781313952996736 184752 149847 167678 -342221
832781313971208064 184825 149988 167673 -342244
832781313989419520 185032 150160 167658 -342314
832781314007630848 185271 150432 167720 -342286
832781314025842176 185476 150602 167715 -342316
832781314044053632 185666 150804 167685 -342278
832781314062264960 185914 150988 167711 -342266
832781314080476288 186003 151181 167726 -342285
832781314098687748 186084 151216 167716 -342248
832781314116898176 186117 151229 167697 -342272
832781314135108608 186163 151310 167693 -342239
832781314153318912 186138 151353 167734 -342284
832781314171529344 186165 151350 167711 -342295
832781314189739648 186191 151384 167714 -342239
832781314207950080 186266 151385 167656 -342286
832781314226160512 186361 151580 167744 -342294
832781314244370816 186528 151679 167727 -342301
832781314262581248 186665 151802 167709 -342316
832781314280791552 186944 152119 167764 -342273
832781314299001984 187156 152353 167729 -342297
832781314317212416 187408 152523 167702 -342254
832781314335422720 187516 152680 167680 -342269
832781314353633152 187732 152925 167696 -342265
832781314371843456 187697 152927 167684 -342271
832781314390053888 187656 152829 167773 -342274
832781314408264320 187399 152618 167675 -342289
832781314426474624 187149 152331 167710 -342291
832781314444685056 186777 151992 167697 -342294
832781314462895360 186377 151646 167647 -342269
832781314481105792 185991 151154 167645 -342267
832781314499316224 185577 150846 167683 -342222
832781314517526528 185221 150492 167661 -342222
832781314535736960 184934 150218 167717 -342285
832781314553947264 184745 150005 167667 -342288
832781314572157696 184633 149826 167630 -342288
832781314590368128 184603 149799 167673 -342259
832781314608578432 184594 149780 167684 -342290
832781314626788864 184775 149986 167736 -342196
832781314644999168 184955 150177 167718 -342227
832781314663209600 185131 150291 167692 -342266
832781314681420032 185367 150542 167709 -342276
832781314699630336 185550 150751 167701 -342246
832781314717840768 185768 150996 167712 -342230
832781314736051200 185935 151123 167716 -342260
832781314754261504 186016 151276 167742 -342238
832781314772471936 186062 151289 167711 -342279
832781314790682240 186148 151334 167728 -342202
832781314808892672 186121 151321 167708 -342228
832781314827103104 186115 151449 167707 -342220
832781314845313408 186174 151434 167744 -342223
832781314863523760 186223 151364 167703 -342236
832781314881734272 186323 151498 167765 -342255
832781314899944832 186511 151647 167674 -342236
832781314918155264 186644 151754 167699 -342270
832781314936365824 186842 151996 167790 -342184
832781314954576384 187078 152273 167779 -342168
832781314972786944 187255 152462 167694 -342254
832781314990997376 187597 152811 167716 -342236
832781315009207936 187762 152972 167754 -342233
832781315027418496 187829 152996 167746 -342204
832781315045629056 187777 152923 167710 -342237
832781315063839488 187609 152771 167716 -342254
832781315082050048 187366 152555 167755 -342296
832781315100260608 187129 152291 167767 -342236
832781315118471168 186735 151969 167755 -342236
832781315136681600 186320 151533 167773 -342210
832781315154892160 185916 151156 167767 -342206
832781315173102720 185517 150778 167722 -342199
832781315191313280 185239 150434 167748 -342201
832781315209523712 184920 150099 167702 -342211
832781315227734272 184784 149965 167785 -342183
832781315245944832 184638 149828 167729 -342208
832781315264155392 184643 149802 167761 -342232
832781315282365824 184735 149955 167760 -342204
832781315300576384 184827 150013 167678 -342251
832781315318786944 184995 150177 167725 -342276
832781315336997376 185265 150447 167722 -342212
832781315355207936 185475 150658 167748 -342242
832781315373418496 185682 150900 167722 -342201
832781315391629056 185777 151027 167717 -342217
832781315409839488 185959 151166 167736 -342187
832781315428050048 186036 151332 167767 -342239
832781315446260608 186083 151340 167746 -342277
832781315464471168 186137 151387 167741 -342244
832781315482681600 186132 151387 167752 -342226
832781315500892160 186325 151473 167744 -342284
832781315519102720 186242 151402 167724 -342278
832781315537313280 186320 151465 167763 -342192
832781315555523712 186360 151488 167716 -342263
832781315573734272 186503 151659 167711 -342263
832781315591944832 186758 151860 167728 -342218
832781315610155392 186906 152103 167731 -342226
832781315628365874 187152 152357 167762 -342288
832781315646576384 187386 152585 167711 -342247
832781315664786944 187631 152734 167725 -342221
832781315682997376 187797 152893 167749 -342273
832781315701207936 187850 153019 167746 -342239
832781315719418496 187786 152968 167719 -342239
832781315737629056 187552 152785 167704 -342261
832781315755839488 187256 152464 167717 -342187
832781315774050048 186920 152087 167680 -342248
832781315792260608 186549 151741 167684 -342276
832781315810471168 186159 151323 167707 -342257
832781315828681600 185781 150901 167726 -342256
832781315846892160 185420 150526 167778 -342260
832781315865102720 185031 150258 167675 -342279
832781315883313280 184842 150034 167742 -342295
832781315901523712 184705 149878 167734 -342269
832781315919734272 184660 149857 167746 -342259
832781315937944832 184657 149815 167700 -342248
832781315956155392 184714 149943 167746 -342253
832781315974365824 184911 150081 167736 -342246
832781315992576384 185102 150303 167730 -342250
832781316010786944 185453 150551 167711 -342293
832781316028997504 185549 150765 167727 -342259
832781316047207936 185739 150922 167759 -342270
832781316065418496 185898 151089 167729 -342265
832781316083629056 186098 151170 167749 -342219
832781316101839488 186123 151315 167736 -342234
832781316120050048 186158 151316 167780 -342212
832781316138260608 186136 151315 167686 -342259
832781316156471168 186164 151367 167792 -342263
832781316174681600 186198 151416 167758 -342253
832781316192892160 186225 151349 167726 -342267
832781316211102720 186347 151555 167708 -342257
832781316229313280 186508 151611 167772 -342239
832781316247523712 186629 151759 167747 -342249
832781316265734272 186809 151887 167736 -342231
832781316283944832 187097 152164 167766 -342219
832781316302155392 187237 152410 167739 -342264
832781316320365824 187471 152609 167739 -342304
832781316338576384 187631 152868 167771 -342238
832781316356786944 187784 152939 167728 -342276
832781316374997504 187813 152946 167716 -342265
832781316393207990 187682 152813 167699 -342267
832781316411419520 187390 152599 167733 -342313
832781316429631104 187160 152342 167745 -342246
832781316447842816 186793 151989 167733 -342251
832781316466054400 186345 151607 167748 -342236
832781316484265984 185919 151122 167739 -342316
832781316502477568 185533 150784 167703 -342308
832781316520689280 185371 150532 167702 -342288
832781316538900864 185021 150208 167710 -342235
832781316557112448 184818 149945 167668 -342240
832781316575324032 184611 149770 167671 -342280
832781316593535744 184585 149803 167693 -342269
832781316611747328 184695 149866 167733 -342226
832781316629958912 184823 149964 167737 -342246
832781316648170496 185034 150167 167716 -342303
832781316666382208 185193 150358 167713 -342295
832781316684593792 185412 150576 167714 -342228
832781316702805376 185575 150765 167713 -342268
832781316721016960 185782 150980 167780 -342271
832781316739228672 185880 151094 167725 -342247
832781316757440256 185941 151169 167736 -342245
832781316775651840 186083 151264 167709 -342266
832781316793863424 186110 151310 167736 -342290
832781316812075136 186109 151304 167786 -342251
832781316830286720 186158 151380 167766 -342246
832781316848498304 186212 151417 167769 -342265
832781316866709888 186235 151458 167736 -342238
832781316884921600 186352 151536 167711 -342222
832781316903133184 186462 151688 167732 -342269
832781316921344768 186625 151881 167697 -342259
832781316939556352 186863 152018 167755 -342268
832781316957768064 187084 152294 167745 -342310
832781316975979648 187505 152723 167764 -342205
832781316994191232 187657 152765 167772 -342284
832781317012402816 187759 152957 167766 -342265
832781317030614528 187803 152939 167700 -342290
832781317048826112 187732 152918 167724 -342253
832781317067037696 187576 152789 167726 -342231
832781317085249280 187339 152519 167746 -342247
832781317103460992 187005 152211 167722 -342245
832781317121672576 186644 151902 167771 -342189
832781317139884160 186229 151426 167749 -342277
832781317158095882 185804 151059 167713 -342315
832781317176307456 185478 150645 167696 -342270
832781317194519040 185156 150350 167773 -342244
832781317212730752 184865 150039 167763 -342262
832781317230942336 184690 149867 167752 -342250
832781317249153920 184635 149780 167703 -342261
832781317267365504 184647 149826 167685 -342276
832781317285577216 184671 149881 167691 -342295
832781317303788800 184853 150051 167788 -342254
832781317322000384 185070 150238 167755 -342212
832781317340211968 185232 150392 167756 -342277
832781317358423680 185523 150684 167789 -342261
832781317376635264 185671 150907 167724 -342255
832781317394846848 185893 151084 167758 -342198
832781317413058432 186097 151209 167788 -342245
832781317431270144 186055 151277 167719 -342254
832781317449481728 186149 151321 167721 -342235
832781317467693312 186180 151366 167710 -342271
832781317485904896 186349 151465 167739 -342238
832781317504116608 186230 151414 167648 -342238
832781317522328192 186239 151473 167737 -342288
832781317540539776 186352 151568 167755 -342204
832781317558751360 186401 151576 167692 -342227
832781317576963072 186585 151780 167794 -342226
832781317595174656 186755 151969 167747 -342293
832781317613386240 186974 152171 167786 -342277
832781317631597824 187246 152380 167714 -342238
832781317649809536 187418 152622 167710 -342247
832781317668021120 187607 152794 167720 -342279
832781317686232704 187760 152962 167738 -342261
832781317704444288 187782 152936 167729 -342286
832781317722656000 187707 152862 167745 -342259
832781317740867584 187516 152684 167712 -342295
832781317759079168 187218 152445 167696 -342239
832781317777290752 186947 152088 167827 -342223
832781317795502464 186498 151647 167739 -342281
832781317813714048 186015 151221 167746 -342287
832781317831925632 185648 150838 167733 -342251
832781317850137216 185236 150440 167762 -342306
832781317868348928 184998 150215 167783 -342269
832781317886560512 184758 149960 167718 -342340
832781317904772096 184672 149814 167747 -342260
832781317922983774 184637 149860 167787 -342238
832781317941196160 184642 149786 167730 -342259
832781317959408512 184715 149968 167731 -342295
832781317977620864 184893 150126 167701 -342323
832781317995833216 185238 150467 167721 -342271
832781318014045568 185380 150545 167702 -342259
832781318032257920 185559 150738 167783 -342260
832781318050470272 185834 151020 167804 -342199
832781318068682624 185961 151135 167782 -342254
832781318086894848 186087 151235 167733 -342315
832781318105107200 186130 151261 167731 -342291
832781318123319552 186166 151320 167761 -342234
832781318141531904 186168 151321 167787 -342245
832781318159744256 186196 151316 167772 -342214
832781318177956608 186195 151287 167726 -342342
832781318196168960 186240 151398 167673 -342283
832781318214381312 186283 151436 167670 -342238
832781318232593664 186429 151601 167680 -342276
832781318250806016 186579 151803 167737 -342282
832781318269018368 186785 151992 167729 -342364
832781318287230720 187042 152216 167754 -342294
832781318305443072 187273 152385 167705 -342284
832781318323655424 187565 152680 167709 -342300
832781318341867648 187681 152858 167695 -342233
832781318360080000 187786 152926 167718 -342280
832781318378292352 187725 152950 167681 -342254
832781318396504704 187646 152783 167766 -342271
832781318414717056 187417 152651 167780 -342247
832781318432929408 187129 152276 167821 -342278
832781318451141760 186755 151894 167754 -342312
832781318469354112 186284 151475 167704 -342327
832781318487566464 185898 151090 167700 -342297
832781318505778816 185703 150722 167716 -342286
832781318523991168 185333 150458 167736 -342274
832781318542203520 184995 150198 167786 -342202
832781318560415872 184742 149957 167683 -342272
832781318578628224 184639 149819 167737 -342256
832781318596840448 184620 149769 167731 -342214
832781318615052800 184694 149891 167646 -342260
832781318633265152 184853 150057 167701 -342212
832781318651477504 185029 150215 167699 -342261
832781318669689856 185284 150445 167710 -342217
832781318687902184 185456 150655 167739 -342290
832781318706113792 185684 150845 167732 -342279
832781318724325376 185794 151017 167733 -342298
832781318742537088 185925 151114 167699 -342247
832781318760748672 186053 151203 167749 -342276
832781318778960256 186136 151265 167748 -342257
832781318797171840 186245 151345 167755 -342255
832781318815383552 186187 151263 167718 -342301
832781318833595136 186201 151296 167710 -342321
832781318851806720 186291 151422 167739 -342276
832781318870018304 186281 151489 167763 -342324
832781318888230016 186414 151615 167762 -342295
832781318906441600 186574 151726 167716 -342229
832781318924653184 186736 151851 167732 -342233
832781318942864768 186989 152079 167822 -342182
832781318961076480 187187 152358 167803 -342245
832781318979288064 187438 152523 167775 -342274
832781318997499648 187609 152732 167680 -342278
832781319015711232 187832 152992 167749 -342248
832781319033922944 187858 153035 167759 -342247
832781319052134528 187796 152973 167777 -342260
832781319070346112 187663 152853 167805 -342271
832781319088557696 187266 152497 167692 -342336
832781319106769408 186959 152155 167687 -342336
832781319124980992 186544 151777 167691 -342284
832781319143192576 186127 151397 167767 -342284
832781319161404160 185790 151000 167784 -342256
832781319179615872 185510 150594 167813 -342255
832781319197827456 185148 150292 167776 -342225
832781319216039040 184873 150057 167753 -342279
832781319234250624 184746 149897 167805 -342243
832781319252462336 184640 149777 167664 -342285
832781319270673920 184706 149838 167656 -342315
832781319288885504 184776 149881 167765 -342284
832781319307097088 184883 150053 167711 -342283
832781319325308800 185086 150283 167715 -342271
832781319343520384 185272 150481 167676 -342257
832781319361731968 185551 150716 167752 -342279
832781319379943552 185679 150909 167761 -342331
832781319398155264 185804 151038 167692 -342310
832781319416366848 186012 151277 167765 -342228
832781319434578432 186084 151322 167725 -342327
832781319452790086 186148 151248 167727 -342316
832781319471001728 186129 151290 167718 -342219
832781319489213312 186169 151319 167684 -342203
832781319507425024 186225 151396 167709 -342204
832781319525636608 186227 151347 167688 -342242
832781319543848192 186320 151459 167761 -342282
832781319562059776 186404 151630 167744 -342220
832781319580271488 186598 151698 167696 -342227
832781319598483072 186785 151975 167767 -342284
832781319616694656 187011 152211 167763 -342288
832781319634906240 187263 152394 167781 -342252
832781319653117952 187510 152671 167790 -342232
832781319671329536 187690 152851 167770 -342268
832781319689541120 187804 152994 167682 -342265
832781319707752704 187815 152985 167717 -342193
832781319725964416 187700 152820 167752 -342218
832781319744176000 187506 152644 167703 -342263
832781319762387584 187184 152299 167698 -342246
832781319780599168 186804 152036 167752 -342287
832781319798810880 186369 151568 167697 -342253
832781319817022464 186021 151271 167733 -342247
832781319835234048 185682 150789 167735 -342222
832781319853445632 185221 150468 167710 -342276
832781319871657344 184893 150138 167699 -342223
832781319889868928 184772 149955 167719 -342202
832781319908080512 184664 149806 167670 -342293
832781319926292096 184585 149849 167702 -342290
832781319944503808 184665 149891 167692 -342231
832781319962715392 184842 150000 167766 -342229
832781319980926976 185101 150301 167786 -342234
832781319999138560 185218 150428 167759 -342319
832781320017350272 185398 150637 167705 -342251
832781320035561856 185660 150826 167750 -342273
832781320053773440 185825 151066 167726 -342272
832781320071985024 185934 151114 167670 -342285
832781320090196736 186097 151229 167769 -342209
832781320108408320 186135 151331 167633 -342256
832781320126619904 186176 151410 167694 -342250
832781320144831488 186210 151381 167751 -342215
832781320163043200 186221 151321 167813 -342243
832781320181254784 186269 151368 167839 -342253
832781320199466368 186281 151396 167788 -342247
832781320217677978 186342 151546 167726 -342239
832781320235890432 186502 151659 167716 -342212
832781320254102912 186647 151853 167715 -342247
832781320272315392 186845 152028 167781 -342237
832781320290527872 187097 152265 167750 -342250
832781320308740352 187310 152491 167773 -342280
832781320326952832 187580 152749 167741 -342300
832781320345165312 187787 152937 167705 -342237
832781320363377792 187845 152980 167747 -342259
832781320381590400 187770 152904 167714 -342235
832781320399802880 187592 152769 167704 -342325
832781320418015360 187404 152535 167729 -342259
832781320436227840 187065 152288 167744 -342217
832781320454440320 186690 151846 167721 -342233
832781320472652800 186328 151439 167755 -342238
832781320490865280 185874 151099 167769 -342267
832781320509077760 185492 150678 167735 -342279
832781320527290240 185170 150279 167688 -342287
832781320545502720 184912 150077 167748 -342215
832781320563715200 184748 149967 167711 -342226
832781320581927680 184612 149820 167743 -342242
832781320600140160 184716 149860 167767 -342187
832781320618352640 184740 149903 167701 -342263
832781320636565120 184882 150074 167748 -342236
832781320654777728 185069 150201 167712 -342311
832781320672990208 185276 150460 167683 -342285
832781320691202688 185496 150673 167695 -342285
832781320709415168 185658 150821 167731 -342305
832781320727627648 185899 151085 167746 -342230
832781320745840128 185984 151190 167711 -342234
832781320764052608 186074 151184 167678 -342249
832781320782265088 186111 151289 167687 -342239
832781320800477568 186138 151335 167701 -342285
832781320818690048 186188 151406 167717 -342263
832781320836902528 186175 151381 167724 -342256
832781320855115008 186207 151400 167748 -342270
832781320873327488 186273 151447 167781 -342222
832781320891539968 186369 151591 167770 -342261
832781320909752448 186575 151743 167798 -342274
832781320927965056 186746 151837 167704 -342251
832781320946177536 186941 152083 167716 -342270
832781320964390016 187199 152353 167714 -342238
832781320982602492 187414 152595 167789 -342200
832781321000815360 187616 152850 167726 -342254
832781321019028224 187714 152869 167775 -342286
832781321037241216 187769 152967 167776 -342232
832781321055454080 187717 152877 167777 -342233
832781321073667072 187526 152664 167745 -342242
832781321091879936 187231 152397 167770 -342232
832781321110092928 186930 152048 167766 -342245
832781321128305792 186424 151596 167726 -342293
832781321146518784 186027 151130 167748 -342243
832781321164731648 185661 150815 167782 -342236
832781321182944640 185242 150420 167767 -342237
832781321201157504 184953 150118 167692 -342159
832781321219370496 184728 149847 167686 -342262
832781321237583360 184555 149681 167704 -342294
832781321255796352 184565 149650 167749 -342237
832781321274009216 184590 149690 167764 -342240
832781321292222208 184745 149878 167814 -342185
832781321310435072 184809 149964 167749 -342273
832781321328647936 185001 150130 167752 -342295
832781321346860928 185265 150365 167749 -342254
832781321365073792 185456 150637 167755 -342219
832781321383286784 185581 150749 167698 -342281
832781321401499648 185777 150938 167730 -342276
832781321419712640 185891 151065 167731 -342274
832781321437925504 185970 151116 167766 -342251
832781321456138496 185950 151156 167712 -342311
832781321474351360 185927 151091 167625 -342331
832781321492564352 186026 151197 167735 -342272
832781321510777216 186067 151136 167707 -342277
832781321528990208 186107 151246 167724 -342265
832781321547203072 186178 151320 167684 -342245
832781321565416064 186319 151460 167734 -342210
832781321583628928 186476 151673 167691 -342216
832781321601841920 186673 151839 167745 -342263
832781321620054784 186844 152064 167669 -342311
832781321638267776 187132 152242 167733 -342251
832781321656480640 187340 152528 167695 -342263
832781321674693504 187555 152671 167678 -342273
832781321692906496 187682 152798 167715 -342277
832781321711119360 187651 152839 167744 -342280
832781321729332352 187505 152723 167743 -342271
832781321747545316 187273 152458 167741 -342294
832781321765757312 186944 152160 167771 -342243
832781321783969280 186631 151741 167739 -342247
832781321802181120 186216 151318 167702 -342262
832781321820393088 185798 150980 167750 -342280
832781321838604928 185399 150615 167788 -342243
832781321856816896 185111 150311 167731 -342296
832781321875028736 184863 150031 167761 -342185
832781321893240704 184650 149835 167790 -342249
832781321911452544 184525 149795 167747 -342226
832781321929664512 184441 149681 167779 -342329
832781321947876352 184580 149771 167760 -342293
832781321966088320 184705 149887 167722 -342233
832781321984300160 184883 150109 167753 -342240
832781322002512128 185102 150272 167747 -342277
832781322020723968 185341 150499 167698 -342263
832781322038935936 185538 150735 167681 -342318
832781322057147776 185713 150946 167671 -342274
832781322075359744 185788 151006 167686 -342379
832781322093571584 185943 151056 167738 -342321
832781322111783552 186015 151178 167714 -342264
832781322129995392 185993 151180 167744 -342332
832781322148207360 186028 151159 167715 -342237
832781322166419328 186088 151239 167734 -342274
832781322184631168 186056 151267 167709 -342245
832781322202843136 186138 151331 167698 -342283
832781322221054976 186264 151406 167737 -342254
832781322239266944 186394 151560 167684 -342277
832781322257478784 186528 151674 167716 -342274
832781322275690752 186766 152001 167721 -342232
832781322293902592 186958 152221 167708 -342264
832781322312114560 187226 152424 167685 -342280
832781322330326400 187399 152595 167730 -342260
832781322348538368 187579 152808 167794 -342295
832781322366750208 187664 152864 167745 -342213
832781322384962176 187580 152758 167700 -342276
832781322403174016 187440 152694 167763 -342197
832781322421385984 187214 152402 167718 -342236
832781322439597824 186836 152044 167722 -342290
832781322457809792 186452 151578 167697 -342305
832781322476021632 185959 151204 167733 -342298
832781322494233600 185549 150787 167674 -342288
832781322512445416 185211 150471 167707 -342260
832781322530658560 184954 150158 167765 -342204
832781322548871680 184730 149854 167772 -342226
832781322567084800 184584 149730 167678 -342250
832781322585298048 184545 149720 167673 -342220
832781322603511168 184585 149677 167733 -342261
832781322621724288 184663 149780 167697 -342211
832781322639937408 184754 149968 167710 -342262
832781322658150528 184976 150158 167746 -342252
832781322676363648 185201 150385 167736 -342276
832781322694576896 185407 150599 167696 -342229
832781322712790016 185573 150801 167744 -342262
832781322731003136 185684 150919 167682 -342313
832781322749216256 185804 151015 167722 -342284
832781322767429376 185955 151115 167766 -342254
832781322785642496 185979 151181 167752 -342237
832781322803855744 185995 151140 167714 -342285
832781322822068864 186070 151249 167731 -342304
832781322840281984 186073 151270 167711 -342272
832781322858495104 186069 151297 167662 -342247
832781322876708224 186173 151385 167708 -342278
832781322894921344 186298 151421 167705 -342253
832781322913134592 186400 151538 167635 -342277
832781322931347712 186644 151758 167697 -342290
832781322949560832 186871 152015 167729 -342265
832781322967773952 187114 152249 167730 -342291
832781322985987072 187288 152513 167693 -342296
832781323004200320 187499 152673 167732 -342278
832781323022413440 187642 152826 167776 -342289
832781323040626560 187679 152808 167762 -342270
832781323058839680 187572 152654 167738 -342316
832781323077052800 187302 152457 167713 -342290
832781323095265920 187045 152223 167765 -342220
832781323113479168 186751 151802 167770 -342216
832781323131692288 186282 151503 167730 -342229
832781323149905408 185875 151059 167711 -342260
832781323168118528 185526 150674 167713 -342232
832781323186331648 185186 150346 167779 -342216
832781323204544768 184855 150116 167701 -342293
832781323222758016 184633 149826 167681 -342269
832781323240971136 184551 149717 167701 -342255
832781323259184256 184496 149663 167652 -342253
832781323277397396 184623 149740 167738 -342199
832781323295608832 184746 149854 167769 -342243
832781323313820288 184884 150011 167654 -342286
832781323332031616 185122 150286 167784 -342219
832781323350243072 185325 150448 167777 -342227
832781323368454400 185491 150673 167732 -342256
832781323386665856 185684 150800 167715 -342291
832781323404877184 185821 151010 167769 -342253
832781323423088640 185969 151125 167744 -342237
832781323441299968 185979 151224 167803 -342247
832781323459511424 186052 151260 167743 -342271
832781323477722880 186089 151248 167764 -342259
832781323495934208 186106 151236 167741 -342243
832781323514145664 186087 151225 167778 -342257
832781323532356992 186189 151396 167749 -342210
832781323550568448 186220 151396 167677 -342298
832781323568779776 186392 151566 167721 -342196
832781323586991232 186576 151758 167799 -342214
832781323605202560 186768 151979 167779 -342272
832781323623414016 187016 152175 167724 -342273
832781323641625344 187299 152420 167777 -342232
832781323659836800 187434 152668 167785 -342202
832781323678048256 187653 152802 167748 -342256
832781323696259584 187673 152830 167735 -342234
832781323714471040 187694 152848 167779 -342228
832781323732682368 187583 152671 167739 -342234
832781323750893824 187361 152488 167773 -342235
832781323769105152 186908 152101 167705 -342277
832781323787316608 186588 151777 167703 -342272
832781323805527936 186178 151373 167753 -342249
832781323823739392 185785 150876 167735 -342245
832781323841950848 185386 150552 167737 -342250
832781323860162176 185052 150216 167711 -342212
832781323878373632 184808 149980 167716 -342257
832781323896584960 184605 149805 167717 -342196
832781323914796416 184572 149718 167729 -342246
832781323933007744 184612 149707 167762 -342253
832781323951219200 184664 149797 167752 -342234
832781323969430528 184850 150007 167748 -342214
832781323987641984 185141 150237 167761 -342221
832781324005853312 185269 150437 167751 -342291
832781324024064768 185408 150600 167728 -342300
832781324042276134 185687 150842 167766 -342263
832781324060489472 185807 150986 167713 -342239
832781324078702848 185970 151146 167752 -342279
832781324096916352 186091 151266 167798 -342218
832781324115129728 186143 151303 167759 -342225
832781324133343232 186154 151301 167716 -342249
832781324151556608 186153 151351 167726 -342216
832781324169770112 186129 151280 167721 -342248
832781324187983488 186214 151421 167781 -342264
832781324206196992 186249 151449 167730 -342291
832781324224410368 186327 151543 167778 -342253
832781324242623744 186487 151658 167778 -342269
832781324260837248 186697 151815 167731 -342234
832781324279050624 186875 152100 167643 -342256
832781324297264128 187186 152322 167742 -342252
832781324315477504 187403 152536 167718 -342280
832781324333691008 187611 152756 167725 -342260
832781324351904384 187764 152926 167761 -342245
832781324370117888 187797 152969 167744 -342250
832781324388331264 187701 152831 167699 -342215
832781324406544640 187494 152662 167737 -342253
832781324424758144 187227 152380 167700 -342271
832781324442971520 186870 152067 167692 -342248
832781324461185024 186484 151690 167746 -342222
832781324479398400 186068 151288 167776 -342293
832781324497611904 185682 150845 167767 -342315
832781324515825280 185278 150480 167752 -342291
832781324534038784 185126 150315 167703 -342245
832781324552252160 184807 150026 167721 -342231
832781324570465536 184690 149830 167725 -342218
832781324588679040 184635 149732 167718 -342259
832781324606892416 184637 149771 167753 -342271
832781324625105920 184761 149925 167756 -342243
832781324643319296 184898 150091 167733 -342278
832781324661532800 185068 150300 167755 -342282
832781324679746176 185311 150527 167758 -342237
832781324697959680 185531 150688 167739 -342264
832781324716173056 185700 150857 167698 -342296
832781324734386432 185867 151069 167738 -342222
832781324752599936 186019 151156 167772 -342266
832781324770813312 186115 151254 167801 -342223
832781324789026816 186127 151352 167807 -342229
832781324807240320 186113 151335 167747 -342286
832781324825453440 186085 151276 167710 -342270
832781324843666560 186095 151289 167730 -342226
832781324861879680 186118 151367 167735 -342267
832781324880092928 186191 151358 167736 -342250
832781324898306048 186314 151543 167719 -342242
832781324916519168 186490 151710 167768 -342239
832781324934732288 186770 151904 167761 -342199
832781324952945408 187013 152174 167775 -342270
832781324971158528 187180 152312 167705 -342248
832781324989371776 187421 152643 167766 -342206
832781325007584896 187569 152758 167806 -342230
832781325025798016 187710 152865 167745 -342197
832781325044011136 187727 152864 167778 -342272
832781325062224256 187623 152785 167858 -342217
832781325080437376 187336 152492 167769 -342243
832781325098650624 187037 152222 167714 -342302
832781325116863744 186620 151808 167725 -342273
832781325135076864 186228 151450 167726 -342234
832781325153289984 185858 151072 167775 -342254
832781325171503104 185465 150647 167778 -342230
832781325189716224 185141 150290 167726 -342245
832781325207929472 184847 149980 167716 -342252
832781325226142592 184702 149822 167714 -342232
832781325244355712 184582 149777 167748 -342185
832781325262568832 184585 149801 167682 -342256
832781325280781952 184641 149776 167704 -342213
832781325298995200 184731 149877 167731 -342251
832781325317208320 184912 150089 167787 -342238
832781325335421440 185087 150278 167747 -342253
832781325353634560 185358 150500 167766 -342222
832781325371847680 185617 150765 167746 -342213
832781325390060800 185731 150973 167759 -342276
832781325408274048 185985 151156 167780 -342178
832781325426487168 186013 151217 167767 -342212
832781325444700288 186074 151214 167730 -342232
832781325462913408 186041 151354 167784 -342217
832781325481126528 186107 151359 167771 -342212
832781325499339648 186107 151290 167690 -342280
832781325517552896 186165 151339 167718 -342279
832781325535766016 186181 151424 167792 -342242
832781325553979136 186320 151485 167786 -342240
832781325572192300 186451 151642 167767 -342267
832781325590404736 186655 151810 167761 -342253
832781325608617216 186808 152006 167711 -342288
832781325626829696 187077 152253 167700 -342282
