TIMESTAMP PPG0 PPG1 PPG2 AMBIENT
832781566089652608 354439 299502 340307 -691587
832781566107834368 354443 299506 340322 -691598
832781566126016256 354414 299611 340309 -691566
832781566144198016 354515 299634 340330 -691558
832781566162379904 354469 299640 340296 -691539
832781566180561664 354491 299660 340272 -691546
832781566198743552 354461 299658 340300 -691530
832781566216925312 354546 299658 340302 -691539
832781566235107200 354552 299692 340351 -691519
832781566253288960 354543 299681 340329 -691488
832781566271470848 354452 299702 340405 -691517
832781566289652608 354502 299709 340449 -691526
832781566307834368 354504 299688 340421 -691548
832781566326016256 354464 299666 340401 -691519
832781566344198016 354469 299641 340322 -691556
832781566362379904 354486 299641 340440 -691527
832781566380561664 354444 299704 340351 -691585
832781566398743552 354497 299702 340343 -691490
832781566416925312 354482 299664 340284 -691546
832781566435107200 354507 299588 340316 -691522
832781566453288960 354497 299715 340346 -691460
832781566471470848 354457 299657 340347 -691552
832781566489652608 354444 299614 340417 -691556
832781566507834368 354474 299551 340319 -691566
832781566526016256 354414 299608 340352 -691543
832781566544198016 354440 299612 340334 -691524
832781566562379904 354423 299635 340333 -691515
832781566580561664 354394 299551 340366 -691556
832781566598743552 354446 299686 340339 -691516
832781566616925312 354454 299643 340373 -691522
832781566635107200 354460 299675 340426 -691502
832781566653288960 354464 299621 340317 -691567
832781566671470848 354471 299673 340300 -691537
832781566689652608 354470 299631 340333 -691504
832781566707834368 354433 299611 340219 -691557
832781566726016256 354513 299551 340279 -691559
832781566744198016 354491 299553 340306 -691597
832781566762379904 354582 299631 340360 -691516
832781566780561664 354486 299583 340350 -691587
832781566798743552 354546 299726 340366 -691544
832781566816925312 354484 299636 340322 -691549
832781566835107200 354475 299628 340375 -691524
832781566853288960 354471 299593 340348 -691547
832781566871470848 354551 299666 340417 -691527
832781566889652608 354453 299635 340402 -691534
832781566907834390 354507 299666 340380 -691557
832781566926047488 354541 299661 340413 -691560
832781566944260608 354483 299679 340352 -691534
832781566962473728 354516 299586 340373 -691568
832781566980686976 354449 299571 340294 -691555
832781566998900096 354448 299706 340387 -691549
832781567017113216 354509 299716 340427 -691540
832781567035326336 354487 299646 340455 -691518
832781567053539456 354398 299643 340362 -691541
832781567071752576 354367 299660 340347 -691498
832781567089965824 354386 299708 340313 -691519
832781567108178944 354522 299656 340334 -691505
832781567126392064 354459 299629 340357 -691526
832781567144605184 354517 299619 340323 -691558
832781567162818304 354468 299651 340324 -691591
832781567181031424 252755 213105 242355 -493850
832781567199244672 208524 175648 200110 -407996
832781567217457792 189301 159416 181725 -370767
832781567235670912 180940 152357 173798 -354682
832781567253884032 177341 149280 170354 -347648
832781567272097152 175676 147946 168856 -344624
832781567290310272 174970 147408 168187 -343329
832781567308523520 174711 147188 167917 -342722
832781567326736640 174573 147052 167826 -342509
832781567344949760 174539 147013 167807 -342390
832781567363162880 174509 146952 167725 -342374
832781567381376000 174419 147001 167728 -342354
832781567399589232 174430 146945 167681 -342346
832781567417802368 174452 146974 167726 -342337
832781567436015488 174444 146938 167733 -342272
832781567454228608 174453 146969 167732 -342265
832781567472441856 174425 146946 167725 -342273
832781567490654976 174475 146971 167775 -342255
832781567508868096 174424 146956 167707 -342347
832781567527081216 174493 146999 167714 -342282
832781567545294336 174475 146994 167708 -342324
832781567563507456 174456 147011 167717 -342314
832781567581720704 174496 146973 167755 -342230
832781567599933824 174498 146969 167747 -342310
832781567618146944 174520 146933 167769 -342262
832781567636360064 174528 146995 167703 -342278
832781567654573184 174536 146982 167751 -342253
832781567672786304 174510 146961 167720 -342274
832781567690999552 174549 147075 167818 -342233
832781567709212672 174557 146967 167752 -342264
832781567727425792 174517 147018 167773 -342270
832781567745638912 174518 147036 167759 -342249
832781567763852032 174482 146952 167790 -342237
832781567782065152 174465 146973 167796 -342270
832781567800278400 174479 146959 167696 -342246
832781567818491520 174490 146964 167752 -342288
832781567836704640 174594 147110 167608 -342312
832781567854917760 174735 147202 167722 -342283
832781567873130880 174634 147154 167750 -342321
832781567891344128 174704 147240 167753 -342269
832781567909557248 174714 147189 167716 -342286
832781567927770368 174713 147272 167724 -342284
832781567945983488 174792 147281 167747 -342277
832781567964196608 174837 147366 167659 -342204
832781567982409728 174870 147390 167652 -342247
832781568000622976 174918 147433 167688 -342267
832781568018836096 174988 147528 167779 -342284
832781568037049216 174941 147534 167696 -342310
832781568055262336 175198 147628 167789 -342294
832781568073475456 175283 147820 167720 -342305
832781568091688576 175442 147938 167759 -342294
832781568109901824 175409 148008 167776 -342306
832781568128114944 175448 148028 167736 -342334
832781568146328064 175491 148063 167721 -342285
832781568164541184 175530 148070 167698 -342333
832781568182754304 175579 148111 167744 -342264
832781568200967496 175590 148051 167704 -342317
832781568219181440 175574 148129 167690 -342287
832781568237395328 175596 148149 167778 -342294
832781568255609088 175714 148206 167724 -342269
832781568273822976 175721 148262 167688 -342295
832781568292036864 175795 148384 167731 -342285
832781568310250752 175932 148443 167735 -342287
832781568328464512 175966 148472 167698 -342296
832781568346678400 176047 148570 167687 -342340
832781568364892288 176141 148594 167730 -342304
832781568383106048 176057 148618 167753 -342267
832781568401319936 176126 148582 167708 -342242
832781568419533824 176045 148504 167736 -342280
832781568437747712 175939 148455 167751 -342290
832781568455961472 175914 148416 167796 -342237
832781568474175360 175784 148314 167778 -342272
832781568492389248 175720 148248 167807 -342256
832781568510603136 175554 148141 167756 -342300
832781568528816896 175461 148025 167694 -342299
832781568547030784 175428 147954 167772 -342276
832781568565244672 175362 147923 167685 -342263
832781568583458432 175396 147946 167783 -342257
832781568601672320 175362 147894 167779 -342230
832781568619886208 175323 147875 167717 -342322
832781568638100096 175426 147914 167726 -342307
832781568656313856 175504 148002 167724 -342283
832781568674527744 175506 148087 167728 -342277
832781568692741632 175568 148094 167763 -342277
832781568710955392 175565 148134 167739 -342294
832781568729169280 175692 148212 167718 -342267
832781568747383168 175707 148209 167726 -342293
832781568765597056 175720 148280 167747 -342277
832781568783810816 175733 148300 167747 -342289
832781568802024704 175738 148258 167728 -342253
832781568820238592 175798 148333 167744 -342260
832781568838452480 175802 148303 167789 -342232
832781568856666240 175808 148311 167772 -342204
832781568874880128 175839 148320 167741 -342229
832781568893094016 175918 148406 167768 -342254
832781568911307776 175868 148385 167727 -342299
832781568929521664 175950 148518 167719 -342288
832781568947735552 175971 148513 167696 -342332
832781568965949440 176103 148593 167741 -342325
832781568984163144 176194 148676 167736 -342268
832781569002377088 176244 148739 167744 -342284
832781569020590976 176191 148902 167733 -342333
832781569038804864 176238 148924 167715 -342288
832781569057018752 176240 148795 167733 -342274
832781569075232512 176256 148751 167713 -342253
832781569093446400 176677 149107 167745 -342295
832781569111660288 176746 149212 167717 -342301
832781569129874176 176722 149196 167710 -342228
832781569148088064 176692 149189 167698 -342251
832781569166301952 176560 149080 167693 -342201
832781569184515840 176439 148946 167768 -342174
832781569202729600 176375 148861 167730 -342249
832781569220943488 176224 148752 167698 -342303
832781569239157376 176181 148682 167716 -342257
832781569257371264 176112 148675 167669 -342282
832781569275585152 176131 148654 167712 -342235
832781569293799040 176175 148696 167726 -342307
832781569312012800 176174 148730 167686 -342352
832781569330226688 176291 148840 167736 -342283
832781569348440576 176333 148930 167699 -342318
832781569366654464 176418 148990 167664 -342268
832781569384868352 176556 149071 167707 -342298
832781569403082240 176600 149149 167746 -342301
832781569421296128 176608 149194 167727 -342296
832781569439509888 176652 149178 167718 -342260
832781569457723776 176680 149237 167718 -342276
832781569475937664 176713 149225 167698 -342296
832781569494151552 176721 149197 167700 -342272
832781569512365440 176754 149214 167683 -342346
832781569530579328 176891 149335 167732 -342293
832781569548793216 176845 149393 167789 -342324
832781569567006976 176874 149442 167718 -342302
832781569585220864 176858 149388 167714 -342342
832781569603434752 176953 149441 167665 -342335
832781569621648640 176978 149532 167735 -342349
832781569639862528 177127 149646 167769 -342271
832781569658076416 177231 149776 167733 -342244
832781569676290304 177240 149844 167749 -342293
832781569694504064 177335 149916 167713 -342260
832781569712717952 177374 149954 167797 -342277
832781569730931840 177338 149898 167714 -342244
832781569749145642 177200 149724 167708 -342372
832781569767358976 177034 149659 167729 -342282
832781569785572352 176944 149552 167737 -342324
832781569803785600 176823 149378 167680 -342300
832781569821998976 176685 149262 167751 -342300
832781569840212224 176496 149076 167759 -342281
832781569858425600 176398 148946 167688 -342303
832781569876638848 176208 148851 167735 -342293
832781569894852224 176264 148796 167733 -342295
832781569913065472 176215 148707 167748 -342269
832781569931278848 176229 148722 167778 -342273
832781569949492224 176248 148780 167728 -342262
832781569967705472 176240 148789 167750 -342295
832781569985918848 176262 148808 167713 -342307
832781570004132096 176352 148933 167717 -342333
832781570022345472 176501 149087 167752 -342233
832781570040558720 176583 149126 167693 -342284
832781570058772096 176626 149188 167679 -342261
832781570076985472 176667 149174 167684 -342251
832781570095198720 176705 149228 167767 -342305
832781570113412096 176752 149298 167733 -342297
832781570131625344 176747 149256 167705 -342294
832781570149838720 176757 149256 167686 -342273
832781570168051968 176831 149324 167739 -342255
832781570186265344 176814 149343 167744 -342261
832781570204478592 176889 149414 167773 -342268
832781570222691968 176854 149425 167718 -342323
832781570240905344 176896 149464 167718 -342273
832781570259118592 176990 149493 167744 -342277
832781570277331968 177083 149548 167765 -342272
832781570295545216 177127 149748 167765 -342216
832781570313758592 177246 149779 167788 -342276
832781570331971840 177331 149856 167778 -342263
832781570350185216 177394 149884 167770 -342276
832781570368398592 177421 149974 167750 -342266
832781570386611840 177360 149898 167720 -342284
832781570404825216 177316 149899 167675 -342302
832781570423038464 177221 149767 167699 -342313
832781570441251840 177032 149590 167720 -342289
832781570459465088 176924 149504 167692 -342295
832781570477678464 176810 149331 167705 -342277
832781570495891712 176610 149141 167704 -342332
832781570514105088 176488 149048 167763 -342271
832781570532318394 176369 148900 167702 -342329
832781570550532736 176279 148745 167755 -342268
832781570568747136 176250 148760 167705 -342286
832781570586961408 176214 148729 167722 -342240
832781570605175808 176234 148765 167719 -342266
832781570623390208 176296 148788 167734 -342279
832781570641604480 176353 148813 167762 -342312
832781570659818880 176372 148911 167750 -342339
832781570678033280 176473 149001 167721 -342331
832781570696247552 176504 149088 167743 -342308
832781570714461952 176623 149178 167784 -342279
832781570732676352 176709 149202 167807 -342285
832781570750890624 176729 149262 167799 -342329
832781570769105024 176825 149281 167754 -342262
832781570787319424 176855 149353 167770 -342237
832781570805533696 176823 149344 167748 -342269
832781570823748096 176770 149331 167702 -342288
832781570841962496 176788 149326 167804 -342247
832781570860176768 176808 149272 167756 -342307
832781570878391168 176837 149378 167747 -342320
832781570896605440 176838 149361 167708 -342273
832781570914819840 176910 149454 167728 -342271
832781570933034240 176958 149492 167722 -342315
832781570951248512 177134 149677 167777 -342279
832781570969462912 177195 149776 167773 -342301
832781570987677312 177237 149855 167735 -342285
832781571005891584 177282 150058 167773 -342321
832781571024105984 177369 150035 167732 -342299
832781571042320384 177403 149973 167783 -342274
832781571060534656 177353 149917 167724 -342278
832781571078749056 177273 149806 167736 -342288
832781571096963456 177183 149721 167762 -342263
832781571115177728 177093 149673 167714 -342298
832781571133392128 176951 149503 167781 -342298
832781571151606528 176736 149323 167701 -342320
832781571169820800 176601 149191 167684 -342314
832781571188035200 176418 148997 167700 -342328
832781571206249600 176310 148938 167741 -342296
832781571224463872 176263 148858 167720 -342325
832781571242678272 176213 148797 167699 -342330
832781571260892672 176188 148711 167730 -342330
832781571279106944 176211 148713 167725 -342318
832781571297321344 176257 148828 167715 -342324
832781571315535744 176358 148872 167730 -342268
832781571333750064 176451 149007 167776 -342264
832781571351963904 176491 149060 167741 -342248
832781571370177792 176521 149102 167762 -342335
832781571388391680 176692 149207 167703 -342305
832781571406605568 176676 149265 167694 -342305
832781571424819328 176773 149300 167771 -342323
832781571443033216 176790 149350 167767 -342253
832781571461247104 176734 149342 167732 -342334
832781571479460992 176751 149342 167690 -342315
832781571497674880 176736 149360 167676 -342327
832781571515888768 176774 149357 167753 -342302
832781571534102656 176803 149387 167739 -342281
832781571552316416 176823 149405 167713 -342299
832781571570530304 176878 149443 167694 -342311
832781571588744192 177004 149540 167754 -342283
832781571606958080 177031 149544 167722 -342267
832781571625171968 177224 149711 167800 -342259
832781571643385856 177300 149788 167747 -342299
832781571661599616 177303 149840 167702 -342300
832781571679813504 177393 149948 167677 -342307
832781571698027392 177407 149982 167721 -342282
832781571716241280 177432 149964 167742 -342297
832781571734455168 177358 149899 167697 -342306
832781571752669056 177345 149828 167745 -342307
832781571770882944 177161 149675 167812 -342325
832781571789096704 176995 149524 167746 -342279
832781571807310592 176820 149373 167755 -342291
832781571825524480 176711 149213 167750 -342321
832781571843738368 176486 149062 167694 -342314
832781571861952256 176427 148982 167730 -342303
832781571880166144 176409 148956 167730 -342283
832781571898380032 176262 148752 167642 -342291
832781571916593792 176261 148755 167715 -342231
832781571934807680 176234 148763 167732 -342259
832781571953021568 176273 148813 167712 -342321
832781571971235456 176343 148808 167692 -342296
832781571989449344 176430 148896 167728 -342293
832781572007663232 176458 148967 167700 -342359
832781572025877120 176636 149171 167713 -342311
832781572044090880 176665 149156 167709 -342333
832781572062304768 176693 149154 167713 -342321
832781572080518656 176725 149215 167737 -342332
832781572098732562 176697 149268 167701 -342316
832781572116946944 176802 149299 167772 -342303
832781572135161344 176772 149310 167713 -342370
832781572153375616 176822 149436 167766 -342348
832781572171590016 176831 149301 167731 -342382
832781572189804288 176754 149377 167715 -342416
832781572208018688 176843 149358 167751 -342341
832781572226233088 176880 149419 167702 -342280
832781572244447360 176947 149431 167717 -342338
832781572262661760 177057 149546 167766 -342319
832781572280876032 177100 149576 167704 -342301
832781572299090432 177230 149717 167696 -342261
832781572317304832 177328 149874 167759 -342279
832781572335519104 177374 149915 167721 -342321
832781572353733504 177400 150004 167725 -342248
832781572371947776 177443 150011 167771 -342253
832781572390162176 177428 149976 167741 -342281
832781572408376576 177317 149914 167751 -342261
832781572426590848 177218 149811 167747 -342350
832781572444805248 177134 149672 167778 -342294
832781572463019520 176909 149418 167682 -342305
832781572481233920 176784 149313 167738 -342266
832781572499448320 176611 149151 167739 -342298
832781572517662592 176524 148987 167739 -342310
832781572535876992 176492 149028 167712 -342260
832781572554091264 176371 148884 167739 -342288
832781572572305664 176227 148767 167694 -342335
832781572590520064 176183 148686 167676 -342351
832781572608734336 176238 148694 167742 -342302
832781572626948736 176216 148807 167681 -342281
832781572645163008 176321 148858 167708 -342254
832781572663377408 176375 148956 167690 -342282
832781572681591808 176478 149014 167686 -342284
832781572699806080 176552 149103 167685 -342313
832781572718020480 176641 149172 167691 -342257
832781572736234752 176683 149255 167704 -342338
832781572754449152 176780 149220 167697 -342298
832781572772663552 176790 149296 167765 -342255
832781572790877824 176870 149308 167692 -342213
832781572809092224 176871 149338 167666 -342280
832781572827306496 176842 149376 167714 -342290
832781572845520896 176826 149360 167708 -342283
832781572863735296 176863 149316 167737 -342296
832781572881949566 176912 149402 167718 -342316
832781572900162816 176918 149447 167731 -342364
832781572918376064 176942 149529 167735 -342320
832781572936589184 176992 149560 167654 -342274
832781572954802432 177148 149675 167702 -342310
832781572973015680 177171 149754 167700 -342329
832781572991228928 177345 149888 167667 -342311
832781573009442048 177457 150040 167800 -342279
832781573027655296 177532 150065 167741 -342313
832781573045868544 177486 150059 167734 -342319
832781573064081792 177518 150078 167768 -342363
832781573082294912 177386 149935 167656 -342323
832781573100508160 177317 149903 167748 -342272
832781573118721408 177190 149694 167698 -342332
832781573136934656 177138 149660 167733 -342322
832781573155147776 177077 149612 167701 -342316
832781573173361024 176991 149562 167744 -342271
832781573191574272 176891 149471 167738 -342243
832781573209787520 176842 149402 167753 -342282
832781573228000640 176787 149335 167668 -342270
832781573246213888 176784 149316 167759 -342274
832781573264427136 176723 149288 167727 -342348
832781573282640384 176813 149346 167745 -342265
832781573300853504 176859 149405 167725 -342306
832781573319066752 176925 149492 167715 -342293
832781573337280000 177013 149524 167640 -342379
832781573355493248 177129 149641 167685 -342308
832781573373706368 177245 149788 167715 -342273
832781573391919616 177275 149874 167735 -342291
832781573410132864 177342 149918 167705 -342317
832781573428346112 177425 149996 167748 -342278
832781573446559232 177454 150005 167771 -342281
832781573464772480 177469 150034 167758 -342300
832781573482985728 177492 150033 167743 -342274
832781573501198976 177545 150129 167710 -342329
832781573519412096 177526 150088 167763 -342278
832781573537625344 177546 150092 167684 -342312
832781573555838592 177590 150121 167722 -342316
832781573574051712 177703 150164 167730 -342273
832781573592264960 177730 150262 167663 -342278
832781573610478208 177816 150362 167685 -342283
832781573628691456 177916 150435 167727 -342346
832781573646904598 178026 150565 167721 -342331
832781573665118592 178099 150663 167685 -342280
832781573683332608 178262 150825 167756 -342283
832781573701546624 178299 150815 167736 -342257
832781573719760640 178251 150760 167710 -342291
832781573737974656 178121 150641 167694 -342372
832781573756188672 178086 150612 167748 -342321
832781573774402688 177860 150460 167709 -342268
832781573792616704 177731 150280 167767 -342256
832781573810830720 177542 150049 167732 -342310
832781573829044736 177390 149885 167732 -342307
832781573847258752 177234 149728 167761 -342295
832781573865472768 177046 149573 167671 -342325
832781573883686784 176914 149431 167692 -342261
832781573901900800 176792 149320 167699 -342320
832781573920114816 176791 149298 167716 -342278
832781573938328832 176840 149395 167717 -342305
832781573956542848 176833 149362 167737 -342263
832781573974756864 176957 149411 167724 -342293
832781573992970880 177057 149567 167732 -342269
832781574011184896 177204 149759 167646 -342242
832781574029398912 177294 149708 167653 -342296
832781574047612928 177341 149851 167765 -342318
832781574065826944 177386 149877 167703 -342288
832781574084040960 177469 150010 167718 -342293
832781574102254976 177442 150008 167658 -342298
832781574120468992 177464 150009 167661 -342323
832781574138683008 177506 150025 167753 -342317
832781574156897024 177491 150054 167675 -342328
832781574175111040 177476 150086 167683 -342311
832781574193325056 177552 150099 167733 -342284
832781574211539072 177598 150077 167703 -342345
832781574229753088 177657 150222 167686 -342295
832781574247967104 177740 150318 167720 -342243
832781574266181120 177741 150375 167725 -342266
832781574284395136 177884 150504 167750 -342257
832781574302609152 177988 150565 167701 -342306
832781574320823168 178150 150648 167770 -342243
832781574339037184 178330 150786 167733 -342196
832781574357251072 178354 150879 167759 -342255
832781574375465088 178358 150909 167790 -342231
832781574393679104 178298 150889 167753 -342222
832781574411893198 178193 150799 167710 -342265
832781574430104960 178060 150619 167781 -342283
832781574448316672 177953 150438 167751 -342263
832781574466528384 177683 150279 167762 -342295
832781574484739968 177476 150076 167763 -342315
832781574502951680 177297 149906 167760 -342259
832781574521163392 177166 149706 167752 -342222
832781574539375104 177029 149615 167777 -342272
832781574557586816 176936 149546 167787 -342269
832781574575798528 176838 149430 167704 -342259
832781574594010112 176819 149371 167750 -342289
832781574612221824 176875 149438 167758 -342303
832781574630433536 176894 149482 167756 -342315
832781574648645248 176975 149529 167721 -342254
832781574666856960 177049 149595 167768 -342308
832781574685068672 177207 149708 167688 -342293
832781574703280256 177307 149820 167718 -342271
832781574721491968 177419 149953 167713 -342277
832781574739703680 177436 150055 167746 -342246
832781574757915392 177509 150040 167693 -342260
832781574776127104 177584 150145 167707 -342253
832781574794338688 177601 150125 167719 -342285
832781574812550400 177651 150144 167730 -342227
832781574830762112 177664 150138 167736 -342314
832781574848973824 177611 150201 167637 -342278
832781574867185536 177639 150145 167709 -342268
832781574885397248 177695 150232 167738 -342308
832781574903608832 177734 150262 167697 -342337
832781574921820544 177789 150357 167671 -342291
832781574940032256 177920 150433 167659 -342302
832781574958243968 178033 150584 167674 -342289
832781574976455680 178108 150703 167745 -342248
832781574994667392 178198 150751 167722 -342250
832781575012878976 178301 150871 167691 -342290
832781575031090688 178478 150983 167696 -342297
832781575049302400 178378 150923 167659 -342284
832781575067514112 178325 150856 167674 -342251
832781575085725824 178160 150734 167671 -342342
832781575103937408 178009 150595 167725 -342298
832781575122149120 177852 150409 167753 -342239
832781575140360832 177620 150237 167764 -342288
832781575158572544 177432 150021 167746 -342293
832781575176784150 177289 149914 167758 -342264
832781575194997248 177139 149698 167722 -342293
832781575213210368 177028 149556 167718 -342288
832781575231423360 176977 149507 167728 -342284
832781575249636480 176871 149455 167711 -342260
832781575267849472 176873 149453 167687 -342319
832781575286062592 176935 149488 167700 -342313
832781575304275712 177011 149506 167682 -342331
832781575322488704 177076 149601 167685 -342296
832781575340701824 177203 149708 167731 -342238
832781575358914816 177302 149846 167708 -342257
832781575377127936 177375 149930 167714 -342317
832781575395341056 177535 150091 167734 -342283
832781575413554048 177547 150061 167704 -342262
832781575431767168 177603 150140 167752 -342263
832781575449980160 177573 150156 167746 -342299
832781575468193280 177632 150111 167716 -342293
832781575486406400 177631 150151 167708 -342308
832781575504619392 177702 150186 167810 -342231
832781575522832512 177678 150218 167750 -342259
832781575541045632 177678 150244 167737 -342289
832781575559258624 177681 150260 167658 -342321
832781575577471744 177770 150394 167712 -342329
832781575595684736 177830 150388 167657 -342308
832781575613897856 177980 150620 167698 -342268
832781575632110976 178071 150635 167695 -342322
832781575650323968 178186 150748 167699 -342254
832781575668537088 178331 150866 167725 -342216
832781575686750080 178333 150977 167751 -342277
832781575704963200 178407 150959 167693 -342254
832781575723176320 178444 150940 167705 -342248
832781575741389312 178292 150833 167694 -342295
832781575759602432 178181 150781 167712 -342282
832781575777815424 178061 150601 167776 -342278
832781575796028544 177780 150416 167674 -342263
832781575814241664 177661 150276 167715 -342226
832781575832454656 177421 150059 167715 -342283
832781575850667776 177299 149909 167780 -342282
832781575868880768 177110 149785 167827 -342293
832781575887093888 177012 149598 167694 -342255
832781575905307008 176946 149524 167762 -342315
832781575923520000 176939 149469 167674 -342322
832781575941733078 176891 149492 167699 -342293
832781575959945600 176929 149552 167705 -342307
832781575978158080 177064 149664 167777 -342284
832781575996370560 177072 149655 167755 -342244
832781576014583040 177255 149823 167783 -342281
832781576032795520 177310 149847 167743 -342311
832781576051008000 177461 149975 167781 -342242
832781576069220480 177481 150001 167694 -342305
832781576087432960 177560 150111 167715 -342267
832781576105645568 177659 150143 167745 -342300
832781576123858048 177625 150157 167697 -342270
832781576142070528 177627 150190 167671 -342327
832781576160283008 177671 150187 167750 -342298
832781576178495488 177732 150175 167731 -342290
832781576196707968 177740 150240 167702 -342330
832781576214920448 177754 150281 167736 -342342
832781576233132928 177786 150351 167726 -342356
832781576251345408 177854 150392 167755 -342328
832781576269557888 177934 150468 167718 -342234
832781576287770368 178050 150642 167744 -342313
832781576305982848 178098 150691 167763 -342307
832781576324195328 178223 150828 167763 -342251
832781576342407808 178409 150891 167697 -342229
832781576360620288 178384 150957 167708 -342293
832781576378832896 178360 150920 167703 -342290
832781576397045376 178307 150886 167715 -342302
832781576415257856 178208 150808 167686 -342345
832781576433470336 178118 150597 167722 -342342
832781576451682816 177932 150446 167694 -342354
832781576469895296 177696 150253 167688 -342335
832781576488107776 177581 150092 167760 -342291
832781576506320256 177464 150005 167709 -342294
832781576524532736 177218 149821 167712 -342295
832781576542745216 177111 149625 167746 -342297
832781576560957696 176986 149554 167790 -342271
832781576579170176 176945 149491 167704 -342295
832781576597382656 176921 149495 167752 -342296
832781576615595136 176955 149530 167697 -342246
832781576633807616 177018 149555 167716 -342265
832781576652020224 177071 149693 167695 -342269
832781576670232704 177205 149733 167729 -342301
832781576688445184 177355 149869 167733 -342247
832781576706657592 177387 149907 167749 -342283
832781576724870656 177528 150015 167727 -342263
832781576743083776 177626 150164 167765 -342256
832781576761296896 177642 150132 167773 -342238
832781576779510144 177655 150159 167778 -342285
832781576797723264 177702 150229 167834 -342296
832781576815936384 177684 150203 167793 -342301
832781576834149504 177665 150218 167781 -342294
832781576852362624 177671 150224 167719 -342283
832781576870575744 177706 150269 167677 -342342
832781576888788992 177737 150325 167697 -342306
832781576907002112 177781 150364 167687 -342319
832781576925215232 177870 150474 167726 -342262
832781576943428352 177991 150531 167715 -342300
832781576961641472 178198 150664 167749 -342278
832781576979854592 178170 150759 167674 -342290
832781576998067840 178367 150915 167792 -342266
832781577016280960 178392 150875 167709 -342304
832781577034494080 178436 150962 167726 -342274
832781577052707200 178428 150990 167756 -342270
832781577070920320 178316 150853 167727 -342291
832781577089133440 178141 150719 167715 -342303
832781577107346688 178053 150612 167695 -342340
832781577125559808 177920 150499 167735 -342257
832781577143772928 177753 150243 167708 -342339
832781577161986048 177554 150058 167679 -342342
832781577180199168 177293 149823 167651 -342313
832781577198412416 177172 149714 167692 -342290
832781577216625536 177104 149631 167708 -342285
832781577234838656 176985 149562 167690 -342334
832781577253051776 176934 149494 167703 -342342
832781577271264896 176952 149514 167695 -342273
832781577289478016 176980 149538 167677 -342304
832781577307691264 177031 149589 167694 -342265
832781577325904384 177153 149695 167704 -342295
832781577344117504 177272 149843 167700 -342294
832781577362330624 177376 149959 167755 -342216
832781577380543744 177474 150034 167705 -342250
832781577398756864 177523 150083 167667 -342289
832781577416970112 177600 150112 167715 -342338
832781577435183232 177693 150213 167688 -342307
832781577453396352 177707 150260 167695 -342285
832781577471609572 177732 150232 167734 -342276
832781577489821952 177706 150197 167741 -342214
832781577508034304 177703 150247 167731 -342264
832781577526246784 177840 150395 167721 -342228
832781577544459136 177791 150339 167727 -342272
832781577562671616 177813 150351 167679 -342299
832781577580883968 177899 150495 167789 -342219
832781577599096448 178028 150525 167773 -342249
832781577617308800 178053 150567 167682 -342279
832781577635521280 178135 150771 167666 -342288
832781577653733632 178351 150851 167715 -342257
832781577671946112 178424 150951 167752 -342271
832781577690158464 178446 151058 167744 -342254
832781577708370944 178447 151018 167746 -342244
832781577726583296 178480 150975 167796 -342247
832781577744795776 178357 150866 167753 -342272
832781577763008128 178334 150718 167788 -342245
832781577781220608 178045 150548 167687 -342249
832781577799432960 177856 150351 167739 -342269
832781577817645440 177714 150189 167766 -342277
832781577835857792 177533 150059 167837 -342253
832781577854070272 177277 149811 167737 -342234
832781577872282624 177145 149693 167719 -342251
832781577890495104 177054 149560 167677 -342303
832781577908707456 177023 149564 167750 -342268
832781577926919936 176917 149502 167721 -342278
832781577945132288 177034 149607 167730 -342235
832781577963344768 177080 149646 167771 -342256
832781577981557120 177152 149695 167787 -342243
832781577999769600 177235 149733 167776 -342280
832781578017981952 177352 149902 167781 -342295
832781578036194432 177467 149921 167752 -342297
832781578054406784 177470 150008 167759 -342297
832781578072619264 177563 150158 167743 -342283
832781578090831616 177679 150228 167749 -342253
832781578109044096 177741 150213 167776 -342238
832781578127256448 177730 150301 167813 -342256
832781578145468928 177656 150267 167707 -342283
832781578163681280 177740 150260 167728 -342214
832781578181893760 177771 150246 167699 -342272
832781578200106112 177751 150296 167694 -342263
832781578218318592 177806 150310 167707 -342285
832781578236531034 177803 150399 167731 -342286
832781578254743808 177849 150425 167732 -342259
832781578272956544 177969 150556 167795 -342262
832781578291169408 178110 150689 167690 -342261
832781578309382144 178218 150795 167758 -342277
832781578327594880 178307 150919 167754 -342251
832781578345807744 178374 150924 167735 -342280
832781578364020480 178428 151001 167750 -342287
832781578382233216 178407 150981 167732 -342246
832781578400446080 178349 150942 167803 -342305
832781578418658816 178257 150884 167800 -342279
832781578436871552 178123 150683 167688 -342302
832781578455084416 177904 150521 167661 -342325
832781578473297152 177737 150335 167659 -342290
832781578491509888 177581 150155 167745 -342279
832781578509722752 177401 149915 167724 -342297
832781578527935488 177198 149757 167761 -342320
832781578546148224 177042 149619 167704 -342330
832781578564361088 176991 149527 167661 -342257
832781578582573824 176955 149512 167719 -342218
832781578600786560 176909 149435 167764 -342323
832781578618999424 177000 149567 167745 -342231
832781578637212160 177060 149594 167739 -342219
832781578655424896 177203 149721 167738 -342268
832781578673637760 177222 149829 167734 -342234
832781578691850496 177383 149971 167797 -342226
832781578710063232 177412 150014 167763 -342225
832781578728276096 177518 150109 167790 -342266
832781578746488832 177592 150224 167764 -342257
832781578764701568 177618 150196 167748 -342276
832781578782914432 177731 150282 167796 -342200
832781578801127168 177709 150269 167727 -342249
832781578819339904 177732 150210 167712 -342277
832781578837552768 177699 150264 167782 -342291
832781578855765504 177697 150287 167745 -342310
832781578873978240 177713 150287 167783 -342281
832781578892191104 177826 150330 167736 -342332
832781578910403840 177873 150452 167736 -342243
832781578928616576 177965 150557 167777 -342239
832781578946829440 178078 150603 167760 -342260
832781578965042176 178192 150705 167722 -342287
832781578983254912 178296 150773 167724 -342267
832781579001467754 178414 150911 167745 -342246
832781579019681664 178445 150974 167679 -342277
832781579037895552 178419 150996 167715 -342323
832781579056109568 178443 150998 167766 -342316
832781579074323456 178440 150905 167771 -342268
832781579092537472 178270 150846 167762 -342250
832781579110751360 178086 150642 167768 -342269
832781579128965376 177914 150472 167688 -342251
832781579147179264 177702 150322 167704 -342242
832781579165393152 177520 150061 167730 -342276
832781579183607168 177331 149914 167731 -342345
832781579201821056 177165 149727 167758 -342270
832781579220035072 177021 149590 167719 -342289
832781579238248960 177026 149569 167719 -342242
832781579256462848 176955 149601 167682 -342263
832781579274676864 177007 149581 167709 -342283
832781579292890752 177027 149605 167739 -342304
832781579311104768 177102 149669 167734 -342305
832781579329318656 177194 149761 167782 -342249
832781579347532672 177300 149897 167762 -342267
832781579365746560 177428 149982 167696 -342341
832781579383960448 177516 149993 167702 -342318
832781579402174464 177557 150068 167769 -342239
832781579420388352 177563 150133 167715 -342273
832781579438602368 177634 150209 167781 -342244
832781579456816256 177630 150239 167717 -342222
832781579475030144 177714 150262 167695 -342236
832781579493244160 177706 150260 167784 -342285
832781579511458048 177732 150327 167766 -342331
832781579529672064 177700 150324 167741 -342316
832781579547885952 177805 150360 167707 -342250
832781579566099968 177853 150454 167735 -342276
832781579584313856 177947 150462 167730 -342296
832781579602527744 177993 150557 167713 -342315
832781579620741760 178108 150727 167731 -342248
832781579638955648 178211 150721 167702 -342287
832781579657169664 178391 150932 167720 -342246
832781579675383552 178423 151007 167758 -342271
832781579693597568 178505 151057 167778 -342301
832781579711811456 178491 151069 167680 -342300
832781579730025344 178436 151012 167729 -342282
832781579748239360 178376 150956 167700 -342298
832781579766453306 178208 150811 167712 -342300
832781579784667136 178061 150623 167759 -342280
832781579802881024 177846 150429 167742 -342260
832781579821095040 177618 150226 167722 -342283
832781579839308928 177451 150017 167702 -342271
832781579857522944 177249 149811 167710 -342297
832781579875736832 177162 149703 167713 -342329
832781579893950848 177066 149641 167749 -342290
832781579912164736 176958 149555 167702 -342305
832781579930378624 176975 149593 167729 -342255
832781579948592640 176963 149623 167719 -342257
832781579966806528 177087 149653 167729 -342264
832781579985020544 177223 149794 167756 -342223
832781580003234432 177297 149885 167736 -342317
832781580021448320 177401 149942 167762 -342237
832781580039662336 177489 150099 167784 -342214
832781580057876224 177598 150147 167742 -342245
832781580076090240 177668 150224 167778 -342256
832781580094304128 177718 150274 167780 -342233
832781580112518144 177723 150287 167746 -342269
832781580130732032 177806 150316 167710 -342259
832781580148945920 177786 150322 167738 -342269
832781580167159936 177819 150386 167719 -342227
832781580185373824 177808 150365 167755 -342254
832781580203587840 177755 150372 167700 -342289
832781580221801728 177840 150442 167738 -342270
832781580240015616 177963 150469 167748 -342252
832781580258229632 178010 150536 167702 -342267
832781580276443520 178123 150615 167703 -342310
832781580294657536 178245 150778 167747 -342270
832781580312871424 178369 150918 167750 -342264
832781580331085440 178447 151045 167794 -342293
832781580349299328 178494 151107 167726 -342304
832781580367513216 178549 151089 167653 -342299
832781580385727232 178574 151108 167691 -342329
832781580403941120 178423 151025 167703 -342298
832781580422155136 178296 150873 167746 -342312
832781580440369024 178195 150738 167717 -342257
832781580458583040 178033 150563 167719 -342261
832781580476796928 177800 150354 167705 -342270
832781580495010816 177645 150155 167722 -342266
832781580513224832 177423 150000 167746 -342303
832781580531438856 177273 149868 167704 -342282
832781580549652736 177134 149682 167673 -342310
832781580567866624 177053 149642 167682 -342299
832781580586080640 177067 149625 167668 -342265
832781580604294528 177063 149630 167671 -342248
832781580622508544 177076 149676 167725 -342287
832781580640722432 177150 149707 167717 -342234
832781580658936448 177262 149772 167674 -342263
832781580677150336 177294 149854 167662 -342329
832781580695364224 177426 149959 167682 -342345
832781580713578240 177549 150050 167741 -342311
832781580731792128 177616 150155 167695 -342265
832781580750006144 177711 150273 167686 -342272
832781580768220032 177772 150281 167744 -342269
832781580786433920 177767 150343 167720 -342332
832781580804647936 177780 150374 167707 -342342
832781580822861824 177788 150306 167677 -342351
832781580841075840 177822 150357 167745 -342252
832781580859289728 177836 150373 167699 -342230
832781580877503744 177877 150401 167704 -342211
832781580895717632 177902 150480 167738 -342233
832781580913931520 177940 150566 167763 -342256
832781580932145536 178011 150674 167739 -342220
832781580950359424 178128 150744 167780 -342234
832781580968573440 178282 150883 167793 -342312
832781580986787328 178395 150901 167748 -342249
832781581005001216 178526 151099 167770 -342247
832781581023215232 178564 151135 167764 -342283
832781581041429120 178608 151124 167743 -342297
832781581059643136 178528 151072 167667 -342305
832781581077857024 178406 150976 167704 -342318
832781581096071040 178265 150800 167794 -342334
832781581114284928 178098 150668 167767 -342290
832781581132498816 177954 150484 167771 -342279
832781581150712832 177665 150233 167761 -342318
832781581168926720 177506 150032 167691 -342327
832781581187140736 177357 149948 167724 -342297
832781581205354624 177153 149776 167737 -342364
832781581223568640 177061 149622 167693 -342300
832781581241782528 177082 149591 167716 -342265
832781581259996416 177032 149580 167756 -342279
832781581278210432 177079 149628 167777 -342284
832781581296424406 177065 149647 167732 -342274
832781581314638336 177162 149738 167717 -342300
832781581332852224 177292 149854 167699 -342250
832781581351066240 177343 149915 167710 -342327
832781581369280128 177423 150025 167752 -342273
832781581387494144 177518 150143 167708 -342300
832781581405708032 177609 150125 167692 -342280
832781581423922048 177631 150242 167664 -342321
832781581442135936 177776 150273 167713 -342261
832781581460349824 177800 150289 167703 -342271
832781581478563840 177769 150258 167668 -342318
832781581496777728 177825 150368 167736 -342245
832781581514991744 177769 150343 167735 -342299
832781581533205632 177819 150385 167732 -342300
832781581551419520 177882 150357 167728 -342308
832781581569633536 177881 150432 167704 -342302
832781581587847424 177959 150519 167716 -342270
832781581606061440 178082 150653 167728 -342290
832781581624275328 178192 150737 167721 -342296
832781581642489344 178278 150911 167663 -342320
832781581660703232 178445 151011 167714 -342291
832781581678917120 178546 151041 167745 -342284
832781581697131136 178598 151094 167755 -342267
832781581715345024 178576 151116 167762 -342281
832781581733559040 178576 151084 167710 -342245
832781581751772928 178422 150924 167737 -342295
832781581769986816 178231 150703 167700 -342300
832781581788200832 178061 150610 167760 -342280
832781581806414720 177867 150406 167783 -342251
832781581824628736 177667 150211 167785 -342328
832781581842842624 177450 150048 167721 -342304
832781581861056640 177225 149751 167675 -342298
832781581879270528 177138 149724 167704 -342368
832781581897484416 177062 149641 167759 -342308
832781581915698432 177020 149572 167756 -342253
832781581933912320 176963 149493 167680 -342330
832781581952126336 177043 149616 167750 -342278
832781581970340224 177113 149633 167711 -342364
832781581988554240 177157 149710 167670 -342316
832781582006768128 177445 149996 167738 -342296
832781582024982016 177463 150035 167794 -342300
832781582043196032 177470 150090 167686 -342325
832781582061409956 177651 150165 167748 -342286
832781582079623936 177720 150238 167761 -342350
832781582097837952 177695 150287 167728 -342330
832781582116051840 177717 150297 167616 -342337
832781582134265856 177764 150308 167674 -342294
832781582152479744 177786 150306 167735 -342289
832781582170693760 177789 150297 167684 -342304
832781582188907648 177754 150328 167683 -342307
832781582207121664 177836 150435 167727 -342268
832781582225335680 177878 150384 167696 -342265
832781582243549568 177938 150484 167675 -342281
832781582261763584 178036 150591 167705 -342268
832781582279977472 178120 150744 167753 -342281
832781582298191488 178202 150802 167679 -342353
832781582316405376 178384 150998 167705 -342294
832781582334619392 178475 151069 167720 -342238
832781582352833408 178485 151072 167698 -342289
832781582371047296 178556 151161 167674 -342311
832781582389261312 178566 151089 167773 -342277
832781582407475200 178454 151027 167751 -342300
832781582425689216 178371 150922 167732 -342280
832781582443903104 178151 150723 167695 -342242
832781582462117120 177959 150494 167735 -342286
832781582480331136 177689 150274 167661 -342298
832781582498545024 177548 150081 167695 -342284
832781582516759040 177408 149946 167701 -342286
832781582534972928 177276 149766 167680 -342265
832781582553186944 177150 149663 167696 -342353
832781582571400832 177079 149545 167685 -342308
832781582589614848 177042 149588 167769 -342289
832781582607828864 177069 149651 167756 -342315
832781582626042752 177119 149713 167772 -342318
832781582644256768 177225 149723 167738 -342274
832781582662470656 177271 149811 167762 -342279
832781582680684672 177319 149891 167693 -342320
832781582698898560 177506 150032 167749 -342246
832781582717112576 177558 150127 167729 -342323
832781582735326592 177686 150230 167733 -342323
832781582753540480 177737 150225 167696 -342350
832781582771754496 177766 150281 167744 -342299
832781582789968384 177726 150311 167693 -342311
832781582808182362 177755 150292 167697 -342316
832781582826395520 177760 150327 167659 -342329
832781582844608640 177755 150317 167645 -342314
832781582862821760 177844 150458 167708 -342259
832781582881035008 177854 150437 167719 -342283
832781582899248128 177949 150523 167715 -342293
832781582917461248 177948 150581 167719 -342317
832781582935674368 178077 150734 167746 -342256
832781582953887488 178168 150799 167751 -342277
832781582972100608 178281 150921 167732 -342336
832781582990313856 178400 151050 167715 -342354
832781583008526976 178462 151078 167651 -342317
832781583026740096 178567 151190 167718 -342254
832781583044953216 178590 151168 167724 -342313
832781583063166336 178513 151083 167649 -342294
832781583081379456 178378 150996 167760 -342245
832781583099592704 178244 150861 167712 -342310
832781583117805824 178109 150708 167765 -342261
832781583136018944 177919 150498 167732 -342260
832781583154232064 177744 150333 167765 -342202
832781583172445184 177558 150085 167728 -342254
832781583190658432 177292 149912 167751 -342304
832781583208871552 177235 149836 167780 -342242
832781583227084672 177139 149665 167783 -342301
832781583245297792 177085 149657 167749 -342239
832781583263510912 177042 149651 167728 -342223
832781583281724032 177051 149629 167682 -342251
832781583299937280 177126 149727 167737 -342257
832781583318150400 177140 149746 167677 -342313
832781583336363520 177339 149892 167804 -342222
832781583354576640 177444 150018 167781 -342249
832781583372789760 177518 150125 167783 -342293
832781583391002880 177526 150144 167698 -342296
832781583409216128 177682 150300 167770 -342294
832781583427429248 177735 150369 167748 -342332
832781583445642368 177822 150385 167735 -342230
832781583463855488 177822 150381 167739 -342245
832781583482068608 177826 150390 167677 -342252
832781583500281856 177840 150362 167754 -342303
832781583518494976 177864 150360 167759 -342278
832781583536708096 177913 150427 167756 -342298
832781583554921216 177929 150481 167729 -342232
832781583573134350 177940 150530 167700 -342280
832781583591347456 178085 150640 167703 -342250
832781583609560576 178139 150666 167681 -342323
832781583627773696 178276 150853 167780 -342256
832781583645986944 178383 150932 167712 -342268
832781583664200064 178436 151116 167739 -342239
832781583682413184 178526 151170 167700 -342277
832781583700626304 178559 151200 167703 -342226
832781583718839424 178623 151148 167707 -342247
832781583737052544 178537 151091 167735 -342257
832781583755265792 178373 150959 167678 -342324
832781583773478912 178231 150726 167673 -342303
832781583791692032 178017 150603 167691 -342300
832781583809905152 177834 150376 167693 -342281
832781583828118272 177638 150191 167695 -342332
832781583846331392 177538 150042 167682 -342297
832781583864544640 177370 149867 167751 -342291
832781583882757760 177183 149752 167737 -342290
832781583900970880 177058 149689 167777 -342341
832781583919184000 177057 149601 167771 -342298
832781583937397120 177027 149547 167726 -342348
832781583955610240 177143 149630 167701 -342313
832781583973823488 177189 149687 167618 -342366
832781583992036608 177260 149816 167647 -342338
832781584010249728 177348 149967 167697 -342290
832781584028462848 177503 150041 167766 -342273
832781584046675968 177618 150196 167716 -342260
832781584064889216 177695 150225 167772 -342303
832781584083102336 177747 150279 167743 -342306
832781584101315456 177786 150344 167685 -342279
832781584119528576 177825 150323 167697 -342266
832781584137741696 177863 150395 167748 -342296
832781584155954816 177794 150349 167695 -342351
832781584174168064 177849 150408 167778 -342253
832781584192381184 177854 150352 167735 -342300
832781584210594304 177881 150351 167729 -342276
832781584228807424 177941 150488 167775 -342296
832781584247020544 178028 150574 167729 -342321
832781584265233664 178157 150683 167683 -342254
832781584283446912 178289 150837 167754 -342300
832781584301660032 178380 150970 167728 -342225
832781584319873152 178476 151059 167762 -342212
832781584338086330 178537 151120 167761 -342281
832781584356297984 178665 151154 167746 -342288
832781584374509696 178606 151139 167711 -342276
832781584392721408 178651 151192 167760 -342265
832781584410932992 178516 151109 167684 -342291
832781584429144704 178371 150944 167679 -342268
832781584447356416 178200 150821 167684 -342279
832781584465568128 178027 150614 167782 -342339
832781584483779840 177834 150331 167716 -342308
832781584501991552 177609 150113 167778 -342250
832781584520203136 177475 150036 167756 -342187
832781584538414848 177285 149851 167744 -342257
832781584556626560 177117 149750 167782 -342253
832781584574838272 177094 149715 167744 -342270
832781584593049984 177079 149662 167743 -342251
832781584611261696 177094 149747 167771 -342253
832781584629473280 177136 149787 167747 -342261
832781584647684992 177269 149829 167701 -342269
832781584665896704 177332 149934 167753 -342250
832781584684108416 177441 149985 167755 -342230
832781584702320128 177553 150128 167773 -342288
832781584720531712 177640 150202 167776 -342259
832781584738743424 177742 150287 167775 -342280
832781584756955136 177831 150363 167742 -342267
832781584775166848 177845 150369 167747 -342274
832781584793378560 177906 150506 167781 -342236
832781584811590272 177898 150504 167772 -342250
832781584829801856 177817 150467 167737 -342310
832781584848013568 177850 150437 167754 -342240
832781584866225280 177871 150459 167687 -342294
832781584884436992 177913 150517 167789 -342268
832781584902648704 178018 150554 167747 -342242
832781584920860288 178065 150599 167742 -342234
832781584939072000 178170 150663 167710 -342257
832781584957283712 178320 150809 167720 -342235
832781584975495424 178414 150995 167766 -342270
832781584993707136 178513 151054 167746 -342239
832781585011918848 178767 151289 167760 -342282
832781585030130432 178704 151214 167753 -342319
832781585048342144 178653 151217 167792 -342206
832781585066553856 178570 151174 167831 -342264
832781585084765568 178391 151000 167752 -342246
832781585102977274 178281 150835 167814 -342245
832781585121190400 178120 150752 167805 -342250
832781585139403520 177902 150546 167809 -342254
832781585157616640 177701 150272 167731 -342248
832781585175829888 177549 150141 167717 -342247
832781585194043008 177330 149936 167755 -342267
832781585212256128 177235 149833 167752 -342244
832781585230469248 177108 149716 167745 -342266
832781585248682368 177127 149690 167711 -342303
832781585266895488 177103 149697 167712 -342289
832781585285108736 177127 149780 167737 -342263
832781585303321856 177246 149778 167747 -342252
832781585321534976 177313 149820 167707 -342244
832781585339748096 177408 149926 167749 -342276
832781585357961216 177506 150052 167763 -342247
832781585376174336 177596 150195 167773 -342271
832781585394387584 177717 150296 167800 -342254
832781585412600704 177758 150295 167813 -342296
832781585430813824 177805 150389 167755 -342251
832781585449026944 177792 150395 167731 -342280
832781585467240064 177863 150475 167779 -342246
832781585485453184 177894 150514 167854 -342298
832781585503666432 177932 150470 167783 -342238
832781585521879552 177962 150568 167838 -342281
832781585540092672 177975 150512 167779 -342216
832781585558305792 178005 150501 167772 -342215
832781585576518912 178095 150552 167724 -342236
832781585594732160 178167 150708 167782 -342272
832781585612945280 178266 150806 167760 -342262
832781585631158400 178376 150906 167745 -342266
832781585649371520 178464 151003 167729 -342246
832781585667584640 178518 151182 167776 -342239
832781585685797760 178616 151279 167784 -342289
832781585704011008 178691 151287 167807 -342245
832781585722224128 178661 151246 167775 -342236
832781585740437248 178516 151124 167731 -342293
832781585758650368 178376 151006 167771 -342245
832781585776863488 178244 150821 167770 -342291
832781585795076608 178117 150620 167806 -342248
832781585813289856 177898 150512 167784 -342195
832781585831502976 177684 150209 167718 -342271
832781585849716096 177450 150044 167753 -342284
832781585867929216 177280 149855 167728 -342247
832781585886142396 177232 149791 167735 -342248
832781585904355072 177140 149663 167778 -342260
832781585922567808 177140 149686 167796 -342217
832781585940780544 177114 149624 167724 -342266
832781585958993280 177213 149755 167756 -342282
832781585977206016 177314 149877 167745 -342271
832781585995418880 177382 149977 167708 -342303
832781586013631616 177520 150064 167743 -342284
832781586031844352 177558 150120 167683 -342287
832781586050057088 177683 150207 167760 -342247
832781586068269824 177791 150294 167727 -342269
832781586086482560 177761 150386 167775 -342331
832781586104695296 177852 150462 167742 -342267
832781586122908160 177813 150375 167696 -342295
832781586141120896 177852 150460 167804 -342243
832781586159333632 177845 150489 167754 -342268
832781586177546368 177835 150514 167729 -342260
832781586195759104 177855 150528 167769 -342222
832781586213971840 177947 150513 167737 -342230
832781586232184576 177999 150584 167794 -342245
832781586250397312 178084 150639 167790 -342250
832781586268610048 178200 150757 167738 -342284
832781586286822912 178288 150883 167736 -342265
832781586305035648 178439 150999 167747 -342210
832781586323248384 178499 151133 167766 -342251
832781586341461120 178611 151227 167762 -342215
832781586359673856 178716 151256 167735 -342198
832781586377886592 178688 151283 167730 -342212
832781586396099328 178623 151224 167760 -342217
832781586414312192 178563 151186 167829 -342211
832781586432524928 178362 150986 167761 -342230
832781586450737664 178260 150762 167779 -342245
832781586468950400 177982 150548 167700 -342313
832781586487163136 177917 150487 167712 -342222
832781586505375872 177680 150265 167763 -342208
832781586523588608 177462 150105 167780 -342248
832781586541801344 177283 149915 167727 -342250
832781586560014080 177130 149795 167755 -342229
832781586578226944 177123 149751 167772 -342182
832781586596439680 177088 149733 167794 -342251
832781586614652416 177204 149753 167765 -342230
832781586632865152 177224 149774 167758 -342182
832781586651077888 177307 149940 167747 -342237
832781586669290732 177459 150002 167730 -342204
832781586687504768 177512 150151 167709 -342223
832781586705718784 177581 150197 167688 -342268
832781586723932800 177647 150313 167761 -342304
832781586742146816 177781 150373 167764 -342293
832781586760360832 177820 150398 167735 -342300
832781586778574848 177893 150502 167749 -342225
832781586796788864 177857 150436 167650 -342272
832781586815002880 177870 150438 167702 -342256
832781586833216896 177940 150431 167686 -342274
832781586851430912 177904 150470 167665 -342268
832781586869644928 177961 150468 167698 -342257
832781586887858944 177963 150517 167720 -342259
832781586906072960 177957 150565 167765 -342318
832781586924286976 178105 150717 167744 -342284
832781586942500992 178208 150804 167752 -342340
832781586960715008 178364 150868 167737 -342226
832781586978929024 178529 151056 167789 -342226
832781586997143040 178691 151359 167772 -342213
832781587015357056 178739 151375 167756 -342231
832781587033571072 178720 151317 167754 -342220
832781587051785088 178736 151271 167727 -342248
832781587069999104 178631 151209 167847 -342238
832781587088213120 178526 151049 167762 -342270
832781587106427136 178307 150861 167770 -342220
832781587124641152 178134 150667 167734 -342234
832781587142855168 177897 150504 167742 -342252
832781587161069184 177762 150287 167701 -342262
832781587179283200 177542 150157 167773 -342272
832781587197497216 177357 149937 167760 -342352
832781587215711232 177289 149883 167826 -342244
832781587233925248 177200 149711 167762 -342243
832781587252139264 177131 149673 167771 -342227
832781587270353280 177138 149701 167771 -342253
832781587288567296 177234 149719 167784 -342230
832781587306781312 177262 149823 167728 -342263
832781587324995328 177325 149926 167729 -342299
832781587343209344 177481 150056 167731 -342281
832781587361423360 177610 150169 167763 -342269
832781587379637376 177711 150280 167754 -342233
832781587397851392 177777 150373 167785 -342199
832781587416065280 177817 150427 167718 -342254
832781587434279336 177869 150459 167759 -342239
832781587452493184 177855 150468 167697 -342293
832781587470707072 177883 150478 167748 -342262
832781587488921088 177884 150471 167732 -342298
832781587507134976 177978 150573 167703 -342288
832781587525348992 177902 150483 167649 -342306
832781587543562880 177971 150527 167714 -342256
832781587561776896 177956 150618 167714 -342263
832781587579990784 178108 150656 167796 -342239
832781587598204672 178187 150829 167765 -342219
832781587616418688 178256 150804 167712 -342279
832781587634632576 178476 150992 167739 -342234
832781587652846592 178567 151051 167669 -342255
832781587671060480 178648 151205 167717 -342293
832781587689274368 178669 151274 167754 -342280
832781587707488384 178742 151321 167789 -342281
832781587725702272 178621 151175 167720 -342248
832781587743916288 178587 151184 167777 -342240
832781587762130176 178433 151047 167768 -342217
832781587780344192 178279 150944 167831 -342219
832781587798558080 178123 150700 167795 -342189
832781587816771968 177906 150455 167719 -342188
832781587834985984 177671 150295 167744 -342228
832781587853199872 177492 150071 167795 -342206
832781587871413888 177394 149919 167725 -342250
832781587889627776 177254 149832 167696 -342231
832781587907841664 177207 149768 167718 -342210
832781587926055680 177189 149744 167746 -342230
832781587944269568 177196 149764 167758 -342228
832781587962483584 177248 149854 167739 -342266
832781587980697472 177315 149913 167743 -342253
832781587998911488 177389 150041 167814 -342225
832781588017125376 177548 150133 167778 -342251
832781588035339264 177578 150153 167744 -342199
832781588053553280 177728 150300 167711 -342273
832781588071767168 177769 150352 167739 -342270
832781588089981184 177836 150379 167780 -342257
832781588108195072 177923 150453 167771 -342260
832781588126409088 177921 150432 167785 -342283
832781588144622976 177958 150409 167758 -342268
832781588162836864 177953 150475 167782 -342214
832781588181050880 177944 150458 167789 -342274
832781588199264886 177913 150509 167715 -342273
832781588217478272 177979 150571 167728 -342268
832781588235691648 178050 150662 167734 -342270
832781588253904896 178149 150757 167739 -342228
832781588272118272 178193 150788 167727 -342247
832781588290331520 178376 150954 167788 -342272
832781588308544896 178490 151009 167728 -342244
832781588326758272 178673 151203 167759 -342219
832781588344971520 178688 151236 167777 -342270
832781588363184896 178732 151305 167743 -342255
832781588381398144 178672 151212 167684 -342272
832781588399611520 178639 151253 167771 -342249
832781588417824896 178517 151156 167803 -342257
832781588436038144 178391 150976 167809 -342260
832781588454251520 178222 150710 167741 -342290
832781588472464768 178008 150577 167759 -342246
832781588490678144 177771 150322 167750 -342227
832781588508891392 177605 150134 167755 -342222
832781588527104768 177406 150008 167721 -342272
832781588545318144 177331 149865 167784 -342239
832781588563531392 177194 149749 167743 -342191
832781588581744768 177109 149710 167712 -342288
832781588599958016 177122 149696 167705 -342308
832781588618171392 177163 149810 167736 -342324
832781588636384768 177280 149780 167760 -342295
832781588654598016 177377 149935 167759 -342271
832781588672811392 177417 150013 167742 -342265
832781588691024640 177597 150115 167750 -342295
832781588709238016 177679 150248 167754 -342265
832781588727451392 177792 150314 167765 -342251
832781588745664640 177865 150380 167758 -342236
832781588763878016 177887 150450 167762 -342236
832781588782091264 177921 150466 167766 -342204
832781588800304640 177941 150536 167776 -342206
832781588818518016 177924 150477 167785 -342220
832781588836731264 177925 150544 167824 -342240
832781588854944640 177923 150569 167758 -342260
832781588873157888 177944 150616 167684 -342251
832781588891371264 178073 150631 167735 -342239
832781588909584640 178146 150676 167786 -342235
832781588927797888 178189 150723 167729 -342228
832781588946011264 178329 150904 167781 -342231
832781588964224494 178457 150965 167760 -342245
832781588982437760 178651 151218 167764 -342310
832781589000651008 178690 151262 167759 -342249
832781589018864128 178713 151278 167754 -342262
832781589037077376 178759 151321 167775 -342244
832781589055290624 178716 151282 167805 -342233
832781589073503872 178612 151225 167763 -342245
832781589091716992 178458 151096 167801 -342249
832781589109930240 178322 150905 167793 -342279
832781589128143488 178117 150681 167782 -342223
832781589146356736 177911 150477 167754 -342315
832781589164569856 177715 150270 167780 -342279
832781589182783104 177559 150064 167731 -342233
832781589200996352 177399 149928 167743 -342314
832781589219209600 177297 149859 167730 -342252
832781589237422720 177231 149818 167751 -342310
832781589255635968 177130 149758 167705 -342297
832781589273849216 177153 149720 167731 -342231
832781589292062464 177164 149786 167721 -342227
832781589310275584 177263 149861 167748 -342277
832781589328488832 177396 149950 167721 -342301
832781589346702080 177509 150047 167770 -342233
832781589364915328 177553 150210 167697 -342299
832781589383128448 177672 150267 167759 -342308
832781589401341696 177765 150323 167715 -342289
832781589419554944 177834 150449 167752 -342253
832781589437768192 177859 150401 167761 -342264
832781589455981312 177880 150450 167696 -342302
832781589474194560 177867 150441 167751 -342337
832781589492407808 178002 150616 167745 -342262
832781589510621056 177976 150563 167833 -342278
832781589528834176 177969 150539 167776 -342307
832781589547047424 178021 150540 167779 -342322
832781589565260672 178052 150571 167754 -342291
832781589583473792 178101 150742 167749 -342310
832781589601687040 178158 150847 167719 -342295
832781589619900288 178274 150926 167698 -342259
832781589638113536 178485 151044 167704 -342267
832781589656326656 178581 151127 167688 -342297
832781589674539904 178654 151224 167784 -342245
832781589692753152 178709 151276 167753 -342237
832781589710966400 178770 151244 167753 -342215
832781589729179522 178652 151217 167748 -342276
832781589747392640 178600 151201 167754 -342277
832781589765605760 178425 151047 167718 -342240
832781589783818752 178238 150820 167727 -342288
832781589802031872 178034 150641 167743 -342268
832781589820244864 177810 150521 167741 -342272
832781589838457984 177621 150301 167699 -342243
832781589856671104 177456 150099 167729 -342202
832781589874884096 177375 149895 167752 -342162
832781589893097216 177279 149814 167765 -342188
832781589911310208 177180 149716 167753 -342239
832781589929523328 177168 149736 167724 -342236
832781589947736448 177151 149755 167688 -342259
832781589965949440 177327 149843 167815 -342209
832781589984162560 177293 149930 167716 -342247
832781590002375680 177508 150137 167727 -342273
832781590020588672 177614 150202 167718 -342272
832781590038801792 177683 150229 167736 -342321
832781590057014784 177808 150354 167742 -342291
832781590075227904 177852 150412 167786 -342278
832781590093441024 177962 150419 167813 -342197
832781590111654016 177911 150509 167815 -342220
832781590129867136 177914 150538 167815 -342217
832781590148080128 177965 150529 167783 -342226
832781590166293248 177922 150513 167713 -342310
832781590184506368 178006 150504 167769 -342242
832781590202719360 177970 150472 167696 -342276
832781590220932480 178081 150604 167735 -342246
832781590239145472 178057 150688 167703 -342294
832781590257358592 178169 150785 167754 -342232
832781590275571712 178269 150908 167769 -342185
832781590293784704 178473 150994 167771 -342216
832781590311997824 178550 151065 167751 -342238
832781590330210816 178672 151200 167742 -342208
832781590348423936 178755 151302 167771 -342240
832781590366637056 178761 151311 167751 -342276
832781590384850048 178719 151294 167769 -342206
832781590403063168 178604 151219 167719 -342259
832781590421276288 178568 151107 167746 -342226
832781590439489280 178355 150920 167693 -342254
832781590457702400 178169 150789 167695 -342264
832781590475915392 177981 150511 167711 -342225
832781590494128462 177772 150378 167758 -342248
832781590512341632 177690 150269 167779 -342222
832781590530554752 177482 149990 167738 -342243
832781590548767872 177327 149895 167762 -342270
832781590566981120 177207 149812 167734 -342296
832781590585194240 177188 149735 167726 -342273
832781590603407360 177161 149738 167807 -342304
832781590621620480 177266 149801 167797 -342327
832781590639833600 177336 149923 167803 -342283
832781590658046720 177377 149937 167755 -342315
832781590676259968 177484 150106 167718 -342274
832781590694473088 177622 150168 167744 -342231
832781590712686208 177678 150264 167724 -342282
832781590730899328 177776 150352 167776 -342281
832781590749112448 177844 150406 167735 -342297
832781590767325568 177934 150494 167763 -342244
832781590785538816 177928 150443 167725 -342283
832781590803751936 177933 150512 167754 -342265
832781590821965056 177904 150534 167766 -342222
832781590840178176 177934 150492 167676 -342196
832781590858391296 177938 150543 167722 -342252
832781590876604416 178005 150641 167806 -342206
832781590894817664 178026 150691 167744 -342271
832781590913030784 178085 150625 167721 -342272
832781590931243904 178204 150766 167790 -342263
832781590949457024 178265 150860 167742 -342270
832781590967670144 178362 150996 167695 -342276
832781590985883392 178463 151135 167760 -342273
832781591004096512 178629 151199 167760 -342294
832781591022309632 178895 151404 167790 -342236
832781591040522752 178847 151375 167805 -342218
832781591058735872 178727 151334 167712 -342256
832781591076948992 178576 151165 167725 -342276
832781591095162240 178503 151001 167749 -342237
832781591113375360 178293 150912 167717 -342247
832781591131588480 178123 150671 167744 -342297
832781591149801600 177942 150448 167769 -342211
832781591168014720 177706 150279 167742 -342249
832781591186227840 177556 150094 167748 -342247
832781591204441088 177396 150022 167688 -342247
832781591222654208 177214 149851 167709 -342266
832781591240867328 177174 149776 167728 -342221
832781591259080442 177161 149780 167722 -342273
832781591277293568 177137 149808 167761 -342253
832781591295506688 177200 149823 167748 -342254
832781591313719808 177365 149941 167775 -342273
832781591331933056 177464 149988 167726 -342263
832781591350146176 177556 150103 167673 -342296
832781591368359296 177629 150205 167725 -342270
832781591386572416 177745 150314 167675 -342338
832781591404785536 177818 150368 167654 -342307
832781591422998656 177833 150466 167707 -342370
832781591441211904 177989 150496 167758 -342221
832781591459425024 177927 150521 167708 -342247
832781591477638144 178032 150616 167684 -342260
832781591495851264 177952 150553 167705 -342265
832781591514064384 177931 150525 167691 -342291
832781591532277504 177957 150556 167746 -342286
832781591550490752 177966 150564 167742 -342265
832781591568703872 178035 150652 167695 -342251
832781591586916992 178100 150811 167708 -342281
832781591605130112 178300 150919 167726 -342250
832781591623343232 178385 150960 167721 -342235
832781591641556352 178504 151071 167733 -342227
832781591659769600 178563 151164 167755 -342283
832781591677982720 178659 151301 167785 -342261
832781591696195840 178737 151354 167712 -342301
832781591714408960 178799 151365 167709 -342210
832781591732622080 178665 151245 167731 -342280
832781591750835328 178593 151168 167741 -342230
832781591769048448 178393 151013 167765 -342315
832781591787261568 178217 150792 167717 -342277
832781591805474688 177985 150590 167666 -342273
832781591823687808 177818 150427 167684 -342249
832781591841900928 177634 150257 167738 -342242
832781591860114176 177447 150039 167776 -342243
832781591878327296 177291 149947 167786 -342261
832781591896540416 177201 149794 167752 -342262
832781591914753536 177173 149733 167741 -342289
832781591932966656 177162 149747 167745 -342259
832781591951179776 177132 149788 167736 -342289
832781591969393024 177249 149887 167718 -342260
832781591987606144 177396 149979 167721 -342303
832781592005819264 177503 150086 167754 -342362
832781592024032422 177595 150170 167747 -342280
832781592042245504 177692 150242 167749 -342236
832781592060458624 177759 150366 167747 -342273
832781592078671744 177820 150418 167741 -342248
832781592096884992 177881 150408 167673 -342284
832781592115098112 177898 150458 167736 -342299
832781592133311232 177936 150470 167726 -342287
832781592151524352 177944 150489 167714 -342288
832781592169737472 177893 150464 167725 -342311
832781592187950592 178002 150585 167752 -342256
832781592206163840 177996 150618 167746 -342269
832781592224376960 178060 150630 167729 -342248
832781592242590080 178084 150623 167770 -342274
832781592260803200 178168 150771 167800 -342274
832781592279016320 178271 150895 167742 -342242
832781592297229440 178462 151043 167783 -342260
832781592315442688 178508 151134 167730 -342299
832781592333655808 178600 151195 167724 -342231
832781592351868928 178705 151214 167669 -342274
832781592370082048 178708 151280 167704 -342259
832781592388295168 178696 151325 167656 -342246
832781592406508288 178600 151215 167758 -342262
832781592424721536 178471 151047 167717 -342289
832781592442934656 178279 150918 167716 -342303
832781592461147776 178104 150804 167747 -342279
832781592479360896 177939 150520 167768 -342260
832781592497574016 177823 150389 167718 -342246
832781592515787264 177575 150206 167782 -342272
832781592534000384 177446 149954 167780 -342260
832781592552213504 177339 149810 167753 -342254
832781592570426624 177182 149743 167718 -342231
832781592588639744 177172 149750 167722 -342254
832781592606852864 177188 149777 167743 -342246
832781592625066112 177289 149814 167813 -342245
832781592643279232 177376 149846 167748 -342249
832781592661492352 177435 149970 167748 -342276
832781592679705472 177519 150067 167769 -342249
832781592697918592 177583 150230 167735 -342286
832781592716131712 177708 150328 167738 -342255
832781592734344960 177862 150444 167738 -342237
832781592752558080 177844 150426 167760 -342267
832781592770771200 177927 150518 167754 -342232
832781592788984320 177890 150530 167734 -342245
832781592807197544 178002 150547 167810 -342243
832781592825410688 177951 150508 167704 -342279
832781592843623808 177966 150501 167759 -342307
832781592861836928 178007 150597 167749 -342242
832781592880050176 177983 150576 167769 -342314
832781592898263296 178111 150653 167803 -342231
832781592916476416 178207 150768 167822 -342247
832781592934689536 178292 150844 167775 -342239
832781592952902656 178348 150928 167741 -342283
832781592971115776 178521 151020 167752 -342274
832781592989329024 178591 151162 167717 -342257
832781593007542144 178695 151263 167792 -342237
832781593025755264 178744 151298 167727 -342210
832781593043968384 178758 151371 167760 -342263
832781593062181504 178688 151230 167743 -342268
832781593080394624 178620 151092 167679 -342282
832781593098607872 178453 151015 167680 -342279
832781593116820992 178271 150892 167760 -342250
832781593135034112 178043 150639 167717 -342261
832781593153247232 177855 150428 167722 -342288
832781593171460352 177701 150235 167745 -342271
832781593189673472 177504 150001 167732 -342297
832781593207886720 177331 149948 167729 -342226
832781593226099840 177236 149797 167711 -342253
832781593244312960 177197 149787 167717 -342219
832781593262526080 177134 149737 167720 -342296
832781593280739200 177280 149808 167783 -342243
832781593298952448 177232 149823 167703 -342311
832781593317165568 177343 149928 167727 -342249
832781593335378688 177433 149974 167683 -342260
832781593353591808 177620 150168 167748 -342272
832781593371804928 177701 150293 167798 -342305
832781593390018048 177811 150347 167785 -342287
832781593408231296 177913 150444 167788 -342273
832781593426444416 177855 150531 167801 -342251
832781593444657536 177918 150525 167763 -342272
832781593462870656 177936 150578 167787 -342276
832781593481083776 178001 150545 167822 -342265
832781593499296896 178038 150543 167824 -342222
832781593517510144 178085 150653 167785 -342298
832781593535723264 178060 150630 167784 -342230
832781593553936384 178110 150679 167777 -342237
832781593572149524 178175 150713 167784 -342209
832781593590361856 178219 150759 167729 -342250
832781593608574208 178317 150864 167752 -342219
832781593626786688 178419 150999 167753 -342235
832781593644999040 178568 151061 167738 -342211
832781593663211520 178669 151160 167742 -342209
832781593681423872 178746 151313 167755 -342259
832781593699636352 178815 151270 167718 -342273
832781593717848704 178784 151304 167708 -342254
832781593736061184 178661 151184 167691 -342256
832781593754273536 178549 151137 167718 -342254
832781593772486016 178440 150988 167763 -342328
832781593790698368 178247 150862 167829 -342252
832781593808910848 178014 150590 167805 -342250
832781593827123200 177681 150355 167717 -342313
832781593845335680 177592 150155 167700 -342296
832781593863548032 177337 150011 167673 -342281
832781593881760512 177255 149911 167765 -342252
832781593899972864 177148 149801 167766 -342250
832781593918185344 177183 149750 167768 -342265
832781593936397696 177113 149721 167682 -342315
832781593954610176 177200 149746 167715 -342278
832781593972822528 177430 150002 167818 -342238
832781593991035008 177432 149983 167742 -342279
832781594009247360 177489 150079 167758 -342290
832781594027459840 177601 150198 167731 -342252
832781594045672192 177673 150301 167704 -342278
832781594063884672 177832 150364 167742 -342223
832781594082097024 177871 150478 167728 -342298
832781594100309504 177927 150531 167734 -342255
832781594118521856 177949 150522 167782 -342187
832781594136734336 177944 150515 167756 -342227
832781594154946688 177958 150548 167760 -342215
832781594173159168 178050 150578 167767 -342201
832781594191371520 178054 150610 167767 -342203
832781594209584000 177990 150593 167703 -342271
832781594227796352 178107 150650 167736 -342228
832781594246008832 178119 150685 167772 -342210
832781594264221184 178278 150793 167793 -342240
832781594282433664 178411 150931 167801 -342254
832781594300646016 178478 151013 167773 -342252
832781594318858496 178565 151151 167727 -342279
832781594337070986 178713 151321 167786 -342218
832781594355284096 178769 151372 167675 -342235
832781594373497216 178797 151337 167727 -342294
832781594391710336 178699 151270 167710 -342304
832781594409923584 178624 151209 167701 -342278
832781594428136704 178464 151060 167728 -342274
832781594446349824 178312 150891 167730 -342276
832781594464562944 178160 150705 167766 -342265
832781594482776064 178018 150602 167702 -342235
832781594500989184 177745 150356 167769 -342211
832781594519202432 177587 150230 167781 -342213
832781594537415552 177384 149936 167750 -342270
832781594555628672 177277 149911 167764 -342247
832781594573841792 177224 149793 167703 -342256
832781594592054912 177215 149785 167746 -342298
832781594610268032 177155 149813 167687 -342243
832781594628481280 177247 149851 167759 -342199
832781594646694400 177370 149915 167694 -342310
832781594664907520 177504 150100 167756 -342274
832781594683120640 177571 150168 167751 -342267
832781594701333760 177712 150294 167696 -342315
832781594719546880 177754 150366 167699 -342269
832781594737760128 177849 150375 167695 -342268
832781594755973248 177954 150465 167726 -342230
832781594774186368 177952 150508 167696 -342289
832781594792399488 177939 150538 167751 -342252
832781594810612608 177912 150527 167738 -342254
832781594828825856 177999 150561 167806 -342256
832781594847038976 178033 150598 167780 -342252
832781594865252096 177999 150494 167782 -342293
832781594883465216 178102 150599 167758 -342216
832781594901678336 178104 150670 167801 -342195
832781594919891456 178178 150762 167736 -342228
832781594938104704 178280 150880 167698 -342252
832781594956317824 178509 151051 167785 -342229
832781594974530944 178565 151066 167736 -342269
832781594992744064 178615 151325 167737 -342293
832781595010957184 178741 151361 167708 -342283
832781595029170304 178841 151449 167747 -342257
832781595047383552 178785 151379 167748 -342248
832781595065596672 178744 151341 167759 -342262
832781595083809792 178652 151211 167767 -342310
832781595102022966 178463 151100 167732 -342266
832781595120236032 178274 150891 167798 -342261
832781595138449152 178070 150682 167741 -342244
832781595156662272 177828 150441 167749 -342280
832781595174875520 177656 150264 167725 -342279
832781595193088640 177475 150085 167717 -342270
832781595211301760 177407 149971 167728 -342253
832781595229514880 177291 149837 167682 -342262
832781595247728000 177251 149810 167747 -342223
832781595265941120 177217 149753 167700 -342263
832781595284154368 177151 149815 167674 -342307
832781595302367488 177299 149884 167704 -342242
832781595320580608 177400 149966 167745 -342265
832781595338793728 177550 150165 167790 -342213
832781595357006848 177642 150244 167761 -342196
832781595375219968 177764 150275 167739 -342227
832781595393433216 177896 150426 167778 -342235
832781595411646336 177910 150436 167785 -342245
832781595429859456 177967 150538 167751 -342220
832781595448072576 177961 150601 167731 -342279
832781595466285696 178033 150613 167750 -342273
832781595484498816 177986 150603 167733 -342333
832781595502712064 178103 150709 167763 -342274
832781595520925184 177992 150675 167748 -342274
832781595539138304 178065 150687 167725 -342250
832781595557351424 178073 150706 167734 -342237
832781595575564544 178123 150779 167730 -342256
832781595593777792 178202 150832 167754 -342217
832781595611990912 178410 150992 167782 -342182
832781595630204032 178502 151067 167745 -342206
832781595648417152 178638 151226 167797 -342227
832781595666630272 178707 151318 167773 -342232
832781595684843392 178764 151416 167752 -342249
832781595703056640 178801 151403 167752 -342315
832781595721269760 178807 151430 167802 -342298
832781595739482880 178706 151251 167735 -342263
832781595757696000 178556 151108 167775 -342262
832781595775909120 178355 150958 167720 -342286
832781595794122240 178152 150752 167722 -342284
832781595812335488 177945 150538 167704 -342280
832781595830548608 177794 150371 167707 -342265
832781595848761728 177621 150168 167758 -342255
832781595866974946 177455 150020 167715 -342289
832781595885188096 177365 149949 167769 -342240
832781595903401216 177215 149795 167744 -342288
832781595921614336 177165 149749 167750 -342294
832781595939827456 177174 149771 167750 -342237
832781595958040576 177230 149842 167766 -342223
832781595976253568 177315 149951 167802 -342221
832781595994466688 177435 150022 167741 -342279
832781596012679808 177512 150130 167703 -342296
832781596030892928 177630 150257 167751 -342239
832781596049106048 177727 150313 167702 -342256
832781596067319168 177782 150372 167693 -342284
832781596085532288 177869 150445 167748 -342203
832781596103745408 177913 150450 167708 -342324
832781596121958528 177963 150488 167744 -342342
832781596140171648 177968 150552 167785 -342271
832781596158384640 177975 150560 167748 -342248
832781596176597760 177933 150579 167687 -342256
832781596194810880 177968 150616 167715 -342259
832781596213024000 178061 150672 167770 -342262
832781596231237120 178109 150696 167766 -342233
832781596249450240 178139 150758 167711 -342261
832781596267663360 178235 150856 167708 -342272
832781596285876480 178377 151010 167786 -342303
832781596304089600 178461 151089 167756 -342251
832781596322302720 178571 151226 167779 -342238
832781596340515712 178663 151273 167748 -342329
832781596358728832 178710 151336 167710 -342304
832781596376941952 178751 151359 167749 -342257
832781596395155072 178732 151342 167773 -342257
832781596413368192 178591 151254 167728 -342284
832781596431581312 178475 151080 167741 -342251
832781596449794432 178273 150879 167675 -342245
832781596468007552 178103 150707 167751 -342244
832781596486220672 177803 150474 167707 -342349
832781596504433792 177637 150245 167702 -342345
832781596522646784 177473 150058 167600 -342315
832781596540859904 177337 149938 167641 -342308
832781596559073024 177292 149822 167643 -342251
832781596577286144 177263 149791 167730 -342296
832781596595499264 177238 149711 167681 -342279
832781596613712384 177271 149795 167679 -342286
832781596631925504 177291 149867 167682 -342301
832781596650138544 177354 149954 167691 -342312
832781596668350976 177477 149994 167746 -342257
832781596686563456 177632 150138 167727 -342289
832781596704775808 177703 150278 167761 -342250
832781596722988288 177787 150390 167777 -342218
832781596741200768 177835 150410 167664 -342276
832781596759413120 177899 150501 167753 -342290
832781596777625600 177933 150496 167754 -342293
832781596795838080 177938 150528 167720 -342314
832781596814050432 177979 150512 167733 -342278
832781596832262912 177964 150458 167751 -342312
832781596850475392 178008 150531 167752 -342287
832781596868687744 177968 150550 167728 -342286
832781596886900224 178026 150602 167718 -342290
832781596905112576 178132 150648 167717 -342306
832781596923325056 178158 150819 167720 -342303
832781596941537536 178291 150874 167713 -342259
832781596959749888 178426 151011 167753 -342304
832781596977962368 178684 151238 167715 -342327
832781596996174848 178669 151244 167705 -342319
832781597014387200 178749 151311 167713 -342267
832781597032599680 178820 151419 167737 -342226
832781597050812160 178806 151400 167750 -342222
832781597069024512 178698 151262 167748 -342260
832781597087236992 178577 151141 167683 -342256
832781597105449472 178411 151015 167716 -342218
832781597123661824 178191 150770 167677 -342266
832781597141874304 177990 150590 167766 -342255
832781597160086784 177760 150349 167749 -342302
832781597178299136 177660 150210 167725 -342277
832781597196511616 177418 149998 167751 -342271
832781597214724096 177348 149886 167739 -342267
832781597232936448 177272 149828 167748 -342219
832781597251148928 177202 149775 167709 -342277
832781597269361408 177186 149743 167752 -342282
832781597287573760 177233 149826 167734 -342307
832781597305786240 177300 149847 167695 -342281
832781597323998592 177357 149964 167701 -342244
832781597342211072 177472 150059 167686 -342277
832781597360423552 177664 150241 167742 -342285
832781597378635904 177691 150237 167745 -342299
832781597396848396 177857 150414 167732 -342274
832781597415060864 177884 150514 167809 -342254
832781597433273344 177870 150520 167750 -342285
832781597451485696 177970 150531 167766 -342283
832781597469698176 177927 150654 167732 -342261
832781597487910656 177985 150632 167756 -342311
832781597506123008 177976 150569 167747 -342281
832781597524335488 177980 150588 167747 -342301
832781597542547840 177997 150615 167743 -342329
832781597560760320 178090 150684 167761 -342299
832781597578972800 178124 150724 167727 -342233
832781597597185152 178183 150844 167748 -342282
832781597615397632 178341 150954 167714 -342330
832781597633610112 178486 151016 167781 -342320
832781597651822464 178560 151149 167715 -342291
832781597670034944 178641 151261 167733 -342268
832781597688247296 178727 151344 167721 -342331
832781597706459776 178841 151415 167731 -342248
832781597724672256 178800 151330 167749 -342233
832781597742884608 178655 151205 167738 -342235
832781597761097088 178549 151124 167760 -342248
832781597779309568 178376 150930 167754 -342307
832781597797521920 178125 150681 167752 -342274
832781597815734400 177899 150519 167721 -342314
832781597833946752 177712 150317 167748 -342265
832781597852159232 177558 150111 167716 -342321
832781597870371712 177432 149957 167726 -342272
832781597888584064 177311 149832 167763 -342244
832781597906796544 177208 149845 167777 -342266
832781597925009024 177181 149763 167727 -342282
832781597943221376 177196 149804 167720 -342234
832781597961433856 177238 149885 167749 -342267
832781597979646336 177362 149921 167701 -342287
832781597997858688 177460 150037 167734 -342304
832781598016071168 177511 150158 167675 -342308
832781598034283520 177644 150279 167803 -342259
832781598052496000 177741 150376 167716 -342242
832781598070708480 177870 150354 167752 -342243
832781598088920832 177930 150494 167748 -342259
832781598107133312 177931 150493 167747 -342301
832781598125345792 177988 150571 167762 -342280
832781598143558144 178023 150574 167724 -342314
832781598161770624 177984 150526 167748 -342325
832781598179983000 177992 150576 167732 -342305
832781598198195328 177972 150621 167736 -342291
832781598216407680 178047 150598 167710 -342281
832781598234620160 178127 150689 167686 -342289
832781598252832512 178191 150740 167708 -342248
832781598271044992 178317 150863 167755 -342291
832781598289257344 178417 150965 167704 -342318
832781598307469824 178582 151145 167756 -342291
832781598325682176 178661 151261 167691 -342278
832781598343894656 178731 151334 167747 -342269
832781598362107008 178816 151409 167746 -342289
832781598380319488 178755 151437 167705 -342290
832781598398531840 178747 151321 167734 -342320
832781598416744320 178698 151273 167745 -342266
832781598434956672 178511 151083 167724 -342261
832781598453169152 178313 150889 167718 -342252
832781598471381504 178100 150651 167809 -342184
832781598489593984 177870 150465 167780 -342246
832781598507806336 177672 150308 167671 -342254
832781598526018816 177482 150106 167682 -342289
832781598544231168 177293 149987 167725 -342294
832781598562443648 177321 149879 167710 -342249
832781598580656000 177226 149815 167698 -342283
832781598598868480 177190 149757 167688 -342280
832781598617080832 177204 149810 167722 -342277
832781598635293312 177268 149857 167718 -342243
832781598653505664 177369 149950 167707 -342282
832781598671718144 177512 150070 167682 -342238
832781598689930496 177587 150179 167658 -342264
832781598708142976 177675 150274 167666 -342225
832781598726355328 177772 150300 167688 -342269
832781598744567808 177845 150389 167700 -342274
832781598762780160 177912 150463 167741 -342278
832781598780992640 177969 150515 167716 -342305
832781598799204992 177966 150511 167708 -342336
832781598817417472 177948 150549 167650 -342299
832781598835629824 177970 150553 167719 -342276
832781598853842304 177959 150590 167746 -342259
832781598872054656 178069 150595 167741 -342281
832781598890267136 178126 150664 167745 -342251
832781598908479488 178191 150647 167732 -342298
832781598926691968 178201 150862 167775 -342251
832781598944904462 178399 151003 167779 -342172
832781598963115392 178436 151075 167731 -342282
832781598981326336 178613 151199 167765 -342238
832781598999537280 178716 151291 167756 -342272
832781599017748224 178827 151369 167741 -342286
832781599035959040 178849 151465 167726 -342252
832781599054169984 178737 151368 167702 -342246
832781599072380928 178637 151218 167746 -342304
832781599090591872 178479 151124 167693 -342334
832781599108802816 178305 150948 167716 -342312
832781599127013760 178190 150815 167738 -342312
832781599145224704 177973 150551 167678 -342298
832781599163435520 177754 150368 167712 -342310
832781599181646464 177648 150211 167734 -342272
832781599199857408 177444 149958 167685 -342298
832781599218068352 177317 149929 167721 -342301
832781599236279296 177256 149890 167734 -342256
832781599254490240 177197 149801 167745 -342256
832781599272701184 177190 149794 167701 -342283
832781599290912000 177225 149869 167735 -342291
832781599309122944 177342 149919 167734 -342283
832781599327333888 177434 149969 167713 -342284
832781599345544832 177605 150135 167731 -342232
832781599363755776 177625 150221 167744 -342261
832781599381966720 177749 150318 167775 -342254
832781599400177664 177812 150435 167745 -342276
832781599418388608 177888 150503 167755 -342310
832781599436599424 177952 150514 167772 -342269
832781599454810368 177975 150595 167745 -342274
832781599473021312 178018 150586 167692 -342264
832781599491232256 177987 150598 167755 -342249
832781599509443200 177981 150631 167773 -342210
832781599527654144 178019 150599 167823 -342246
832781599545865088 178044 150623 167764 -342266
832781599564075904 178053 150692 167703 -342233
832781599582286848 178181 150794 167744 -342295
832781599600497792 178299 150885 167792 -342244
832781599618708736 178385 151005 167773 -342254
832781599636919680 178538 151105 167733 -342214
832781599655130624 178704 151279 167802 -342184
832781599673341568 178748 151359 167755 -342217
832781599691552384 178761 151415 167692 -342282
832781599709763360 178844 151382 167718 -342279
832781599727974784 178804 151315 167796 -342280
832781599746186240 178683 151254 167745 -342244
832781599764397568 178493 151086 167733 -342269
832781599782609024 178358 150984 167731 -342276
832781599800820352 178125 150740 167745 -342286
832781599819031808 177944 150470 167699 -342289
832781599837243136 177729 150310 167717 -342234
832781599855454592 177508 150111 167692 -342297
832781599873665920 177409 149946 167687 -342276
832781599891877376 177286 149906 167771 -342247
832781599910088832 177255 149847 167811 -342271
832781599928300160 177235 149833 167752 -342264
832781599946511616 177196 149829 167661 -342300
832781599964722944 177340 149935 167763 -342247
832781599982934400 177394 150021 167708 -342278
832781600001145728 177471 150087 167695 -342288
832781600019357184 177545 150182 167701 -342304
832781600037568512 177666 150249 167745 -342225
832781600055779968 177802 150356 167738 -342240
832781600073991296 177885 150435 167745 -342261
832781600092202752 177934 150543 167715 -342226
832781600110414208 178010 150530 167728 -342229
832781600128625536 178016 150577 167751 -342217
832781600146836992 177940 150594 167725 -342280
832781600165048320 177990 150611 167763 -342271
832781600183259776 178014 150620 167696 -342233
832781600201471104 178035 150650 167741 -342260
832781600219682560 178093 150678 167800 -342267
832781600237893888 178184 150743 167736 -342256
832781600256105344 178249 150793 167727 -342269
832781600274316800 178339 150909 167725 -342310
832781600292528128 178446 151057 167718 -342243
832781600310739584 178596 151177 167735 -342226
832781600328950912 178642 151295 167766 -342249
832781600347162368 178783 151409 167747 -342218
832781600365373696 178854 151441 167798 -342206
832781600383585152 178864 151441 167779 -342237
832781600401796480 178763 151331 167771 -342261
832781600420007936 178646 151345 167797 -342229
832781600438219264 178444 151120 167732 -342323
832781600456430720 178248 150864 167695 -342226
832781600474642098 178036 150663 167758 -342248
832781600492853632 177828 150453 167748 -342283
832781600511065216 177667 150260 167717 -342233
832781600529276928 177470 150070 167716 -342266
832781600547488512 177298 149952 167724 -342294
832781600565700096 177249 149849 167673 -342286
832781600583911680 177209 149787 167680 -342279
832781600602123392 177264 149857 167743 -342260
832781600620334976 177259 149828 167753 -342321
832781600638546560 177372 150002 167773 -342247
832781600656758144 177469 150021 167749 -342227
832781600674969856 177529 150103 167749 -342246
832781600693181440 177680 150263 167788 -342231
832781600711393024 177718 150331 167673 -342323
832781600729604608 177852 150427 167727 -342281
832781600747816320 177906 150483 167695 -342259
832781600766027904 177931 150503 167681 -342242
832781600784239488 177990 150579 167727 -342281
832781600802451072 178024 150557 167763 -342266
832781600820662784 178027 150603 167773 -342313
832781600838874368 178004 150664 167728 -342284
832781600857085952 177984 150625 167750 -342235
832781600875297536 178043 150630 167785 -342232
832781600893509248 178101 150747 167758 -342273
832781600911720832 178161 150733 167737 -342315
832781600929932416 178272 150881 167737 -342278
832781600948144000 178360 150993 167708 -342311
832781600966355712 178443 151099 167665 -342274
832781600984567296 178654 151175 167734 -342253
832781601002778880 178771 151344 167730 -342204
832781601020990464 178801 151382 167737 -342282
832781601039202176 178844 151448 167719 -342255
832781601057413760 178827 151433 167756 -342251
832781601075625344 178713 151338 167731 -342269
832781601093836928 178556 151156 167705 -342276
832781601112048640 178351 150993 167708 -342270
832781601130260224 178183 150765 167718 -342276
832781601148471808 178016 150543 167731 -342286
832781601166683392 177787 150375 167695 -342252
832781601184895104 177580 150232 167711 -342302
832781601203106688 177473 150060 167764 -342243
832781601221318272 177302 149891 167752 -342235
832781601239529990 177198 149866 167699 -342211
832781601257741184 177216 149855 167772 -342220
832781601275952384 177189 149786 167741 -342304
832781601294163456 177307 149855 167692 -342228
832781601312374656 177393 149936 167673 -342243
832781601330585728 177520 150100 167722 -342230
832781601348796928 177655 150191 167771 -342244
832781601367008000 177719 150256 167763 -342266
832781601385219200 177814 150407 167766 -342234
832781601403430400 177916 150440 167685 -342243
832781601421641472 177941 150517 167698 -342259
832781601439852672 178010 150624 167781 -342244
832781601458063744 178023 150641 167742 -342228
832781601476274944 178040 150625 167737 -342251
832781601494486016 178034 150605 167690 -342264
832781601512697216 177933 150587 167742 -342335
832781601530908288 178028 150658 167765 -342257
832781601549119488 178064 150690 167662 -342287
832781601567330688 178106 150730 167702 -342272
832781601585541760 178265 150820 167720 -342304
832781601603752960 178354 150858 167755 -342228
832781601621964032 178490 151082 167781 -342279
832781601640175232 178515 151170 167738 -342252
832781601658386304 178709 151346 167745 -342213
832781601676597504 178798 151406 167732 -342230
832781601694808704 178868 151466 167754 -342265
832781601713019776 178856 151471 167744 -342282
832781601731230976 178731 151320 167717 -342311
832781601749442048 178658 151243 167741 -342263
832781601767653248 178505 151130 167829 -342239
832781601785864320 178332 150938 167775 -342253
832781601804075520 178120 150716 167728 -342299
832781601822286592 177928 150508 167718 -342217
832781601840497792 177701 150300 167773 -342235
832781601858708992 177520 150095 167751 -342259
832781601876920064 177457 150027 167836 -342211
832781601895131264 177324 149897 167784 -342252
832781601913342336 177297 149845 167764 -342193
832781601931553536 177185 149771 167648 -342269
832781601949764608 177236 149855 167751 -342276
832781601967975808 177370 149984 167721 -342269
832781601986187008 177442 149985 167716 -342268
832781602004398044 177542 150151 167761 -342231
832781602022609664 177633 150187 167711 -342242
832781602040821248 177764 150348 167716 -342249
832781602059032704 177835 150382 167705 -342236
832781602077244288 178015 150518 167783 -342249
832781602095455872 178021 150531 167816 -342230
832781602113667328 177990 150587 167775 -342233
832781602131878912 178030 150623 167734 -342278
832781602150090496 178044 150646 167760 -342263
832781602168301952 178040 150616 167721 -342279
832781602186513536 178059 150657 167789 -342255
832781602204725120 178056 150659 167725 -342263
832781602222936704 178129 150707 167753 -342285
832781602241148160 178181 150730 167769 -342262
832781602259359744 178264 150850 167788 -342248
832781602277571328 178371 150971 167773 -342268
832781602295782784 178519 151139 167739 -342253
832781602313994368 178642 151277 167731 -342240
832781602332205952 178732 151314 167726 -342249
832781602350417408 178827 151449 167794 -342235
832781602368628992 178893 151407 167728 -342293
832781602386840576 178906 151463 167826 -342276
832781602405052032 178683 151319 167743 -342311
832781602423263616 178617 151234 167755 -342230
832781602441475200 178452 150996 167703 -342277
832781602459686656 178223 150888 167673 -342248
832781602477898240 178006 150644 167765 -342209
832781602496109824 177778 150458 167745 -342263
832781602514321408 177629 150225 167714 -342271
832781602532532864 177463 150044 167700 -342229
832781602550744448 177316 149898 167724 -342308
832781602568956032 177283 149881 167714 -342342
832781602587167488 177252 149842 167726 -342318
832781602605379072 177245 149856 167692 -342259
832781602623590656 177326 149877 167717 -342280
832781602641802112 177387 149947 167759 -342232
832781602660013696 177417 150062 167739 -342235
832781602678225280 177618 150222 167804 -342250
832781602696436736 177742 150318 167783 -342236
832781602714648320 177814 150406 167772 -342210
832781602732859904 177887 150471 167745 -342209
832781602751071360 177911 150535 167737 -342256
832781602769282884 178023 150568 167792 -342204
832781602787495680 177978 150545 167733 -342259
832781602805708416 178067 150572 167780 -342250
832781602823921280 178017 150616 167753 -342227
832781602842134016 178052 150645 167760 -342193
832781602860346752 178033 150703 167755 -342213
832781602878559616 178076 150698 167732 -342251
832781602896772352 178129 150699 167643 -342290
832781602914985088 178222 150812 167764 -342273
832781602933197952 178306 150853 167718 -342297
832781602951410688 178393 151024 167708 -342307
832781602969623424 178572 151153 167743 -342278
832781602987836288 178621 151236 167728 -342303
832781603006049024 178773 151341 167709 -342246
832781603024261760 178812 151452 167716 -342277
832781603042474624 178854 151414 167719 -342265
832781603060687360 178829 151439 167709 -342259
832781603078900096 178747 151296 167707 -342215
832781603097112960 178545 151124 167705 -342282
832781603115325696 178372 150952 167691 -342218
832781603133538432 178226 150796 167680 -342247
832781603151751296 177985 150563 167668 -342264
832781603169964032 177803 150322 167754 -342235
832781603188176768 177597 150129 167726 -342271
832781603206389632 177423 150042 167750 -342273
832781603224602368 177255 149932 167718 -342281
832781603242815104 177192 149828 167687 -342308
832781603261027968 177235 149865 167767 -342243
832781603279240704 177282 149864 167764 -342240
832781603297453440 177294 149908 167735 -342300
832781603315666304 177343 149998 167717 -342297
832781603333879040 177495 150104 167708 -342264
832781603352091776 177631 150188 167758 -342249
832781603370304640 177705 150364 167752 -342221
832781603388517376 177767 150375 167665 -342247
832781603406730112 177886 150462 167733 -342267
832781603424942976 177970 150479 167713 -342247
832781603443155712 178010 150566 167725 -342237
832781603461368448 177947 150599 167735 -342314
832781603479581312 177980 150578 167690 -342317
832781603497794048 177958 150548 167636 -342341
832781603516006784 178076 150624 167726 -342295
832781603534219608 177998 150593 167716 -342310
832781603552431360 178022 150647 167670 -342319
832781603570643072 178136 150725 167711 -342334
832781603588854784 178214 150836 167662 -342261
832781603607066496 178345 150929 167748 -342293
832781603625278208 178468 151001 167695 -342304
832781603643490048 178590 151134 167727 -342321
832781603661701760 178714 151278 167654 -342281
832781603679913472 178722 151375 167682 -342269
832781603698125184 178840 151422 167736 -342273
832781603716336896 178862 151427 167780 -342281
832781603734548608 178770 151359 167758 -342301
832781603752760320 178628 151160 167675 -342305
832781603770972032 178437 150996 167659 -342282
832781603789183744 178261 150836 167634 -342300
832781603807395456 178023 150598 167678 -342283
832781603825607296 177849 150437 167681 -342334
832781603843819008 177702 150215 167704 -342286
832781603862030720 177511 150049 167677 -342289
832781603880242432 177318 149932 167680 -342333
832781603898454144 177258 149854 167739 -342329
832781603916665856 177238 149870 167763 -342308
832781603934877568 177226 149823 167673 -342397
832781603953089280 177300 149936 167705 -342301
832781603971300992 177419 150003 167718 -342251
832781603989512832 177496 150056 167696 -342249
832781604007724544 177576 150119 167748 -342265
832781604025936256 177737 150313 167753 -342289
832781604044147968 177776 150363 167721 -342257
832781604062359680 177884 150455 167747 -342284
832781604080571392 177974 150514 167697 -342307
832781604098783104 177983 150578 167714 -342250
832781604116994816 177991 150593 167675 -342298
832781604135206528 177968 150594 167703 -342320
832781604153418240 177988 150585 167682 -342283
832781604171630080 178066 150627 167762 -342304
832781604189841792 178009 150671 167730 -342287
832781604208053504 178072 150672 167770 -342269
832781604226265216 178087 150671 167763 -342253
832781604244476928 178185 150759 167720 -342265
832781604262688640 178253 150908 167686 -342298
832781604280900352 178433 151015 167681 -342318
832781604299112076 178493 151129 167721 -342318
832781604317323648 178616 151220 167750 -342306
832781604335535232 178739 151346 167744 -342294
832781604353746944 178769 151396 167696 -342366
832781604371958528 178790 151365 167733 -342321
832781604390170112 178803 151347 167752 -342325
832781604408381696 178738 151278 167747 -342260
832781604426593408 178634 151226 167775 -342282
832781604444804992 178395 150959 167759 -342256
832781604463016576 178210 150782 167717 -342252
832781604481228160 178026 150520 167701 -342246
832781604499439872 177743 150372 167710 -342347
832781604517651456 177583 150164 167691 -342311
832781604535863040 177463 150030 167673 -342270
832781604554074624 177323 149844 167731 -342288
832781604572286336 177323 149871 167759 -342221
832781604590497920 177235 149872 167731 -342267
832781604608709504 177246 149869 167719 -342287
832781604626921088 177316 149864 167729 -342345
832781604645132800 177386 149953 167713 -342264
832781604663344384 177522 150064 167716 -342272
832781604681555968 177584 150215 167707 -342249
832781604699767552 177695 150225 167730 -342279
832781604717979264 177761 150313 167769 -342298
832781604736190848 177862 150444 167703 -342317
832781604754402432 177887 150519 167721 -342320
832781604772614016 178008 150580 167748 -342264
832781604790825728 177978 150570 167673 -342371
832781604809037312 177930 150535 167719 -342325
832781604827248896 177972 150620 167754 -342280
832781604845460480 177971 150701 167810 -342305
832781604863672192 178017 150683 167742 -342285
832781604881883776 178060 150664 167736 -342321
832781604900095360 178160 150684 167742 -342271
832781604918306944 178200 150812 167707 -342304
832781604936518656 178350 150872 167712 -342239
832781604954730240 178385 150981 167647 -342288
832781604972941824 178585 151118 167720 -342225
832781604991153408 178667 151281 167725 -342268
832781605009365120 178786 151335 167722 -342284
832781605027576704 178842 151398 167696 -342327
832781605045788288 178812 151433 167764 -342321
832781605063999978 178737 151337 167660 -342323
832781605082211712 178688 151224 167675 -342280
832781605100423424 178486 151127 167688 -342255
832781605118635264 178330 150965 167681 -342245
832781605136846976 178153 150686 167696 -342276
832781605155058688 177862 150433 167674 -342266
832781605173270528 177698 150236 167634 -342342
832781605191482240 177544 150125 167667 -342249
832781605209694080 177390 149955 167703 -342225
832781605227905792 177274 149895 167721 -342238
832781605246117504 177255 149831 167684 -342251
832781605264329344 177258 149808 167676 -342300
832781605282541056 177221 149810 167699 -342301
832781605300752768 177271 149895 167682 -342324
832781605318964608 177402 149966 167664 -342325
832781605337176320 177569 150122 167720 -342324
832781605355388032 177658 150197 167705 -342245
832781605373599872 177691 150324 167724 -342254
832781605391811584 177795 150379 167696 -342285
832781605410023424 177877 150518 167772 -342304
832781605428235136 177918 150537 167701 -342330
832781605446446848 177999 150649 167739 -342251
832781605464658688 178036 150622 167742 -342271
832781605482870400 178014 150633 167782 -342252
832781605501082112 178139 150715 167782 -342294
832781605519293952 178096 150719 167747 -342236
832781605537505664 178100 150704 167756 -342267
832781605555717376 178105 150707 167686 -342290
832781605573929216 178163 150725 167714 -342284
832781605592140928 178222 150834 167746 -342249
832781605610352768 178344 150955 167702 -342305
832781605628564480 178460 151097 167680 -342281
832781605646776192 178572 151103 167685 -342380
832781605664988032 178686 151334 167763 -342299
832781605683199744 178777 151361 167760 -342301
832781605701411456 178810 151331 167700 -342316
832781605719623296 178809 151463 167709 -342234
832781605737835008 178707 151380 167730 -342256
832781605756046720 178524 151199 167711 -342276
832781605774258560 178411 151000 167716 -342300
832781605792470272 178193 150798 167737 -342290
832781605810682112 177939 150597 167707 -342332
832781605828893824 177776 150365 167674 -342260
832781605847105590 177661 150225 167731 -342242
832781605865317760 177494 150082 167736 -342262
832781605883529984 177307 149933 167731 -342311
832781605901742208 177268 149871 167725 -342329
832781605919954304 177236 149771 167735 -342320
832781605938166528 177250 149862 167666 -342313
832781605956378752 177272 149891 167709 -342301
832781605974590976 177398 149945 167747 -342272
832781605992803200 177441 150023 167733 -342278
832781606011015296 177632 150262 167691 -342284
832781606029227520 177689 150274 167714 -342325
832781606047439744 177805 150395 167754 -342300
832781606065651968 177852 150491 167727 -342270
832781606083864192 177850 150448 167722 -342286
832781606102076288 177949 150566 167698 -342312
832781606120288512 177942 150562 167749 -342318
832781606138500736 177990 150543 167747 -342305
832781606156712960 178018 150627 167770 -342289
832781606174925184 178001 150644 167746 -342293
832781606193137280 178045 150644 167686 -342270
832781606211349504 178091 150715 167748 -342245
832781606229561728 178145 150772 167761 -342255
832781606247773952 178227 150877 167724 -342238
832781606265986048 178366 150993 167722 -342253
832781606284198272 178486 151089 167721 -342274
832781606302410496 178557 151162 167710 -342260
832781606320622720 178672 151330 167667 -342239
832781606338834944 178818 151400 167737 -342222
832781606357047040 178840 151446 167676 -342255
832781606375259264 178854 151464 167775 -342236
832781606393471488 178794 151406 167745 -342209
832781606411683712 178706 151321 167739 -342219
832781606429895936 178612 151194 167733 -342237
832781606448108032 178372 150991 167776 -342291
832781606466320256 178147 150799 167775 -342269
832781606484532480 177917 150557 167750 -342260
832781606502744704 177762 150390 167699 -342256
832781606520956928 177656 150266 167717 -342255
832781606539169024 177424 150070 167719 -342254
832781606557381248 177358 149971 167779 -342297
832781606575593472 177286 149850 167726 -342284
832781606593805696 177225 149794 167643 -342285
832781606612017896 177277 149895 167766 -342201
832781606630229504 177335 149895 167731 -342192
832781606648441088 177447 150003 167769 -342209
832781606666652800 177590 150092 167734 -342273
832781606684864384 177694 150257 167790 -342234
832781606703075968 177710 150291 167766 -342240
832781606721287552 177810 150441 167741 -342262
832781606739499264 177854 150442 167736 -342283
832781606757710848 177996 150556 167805 -342180
832781606775922432 177966 150606 167699 -342266
832781606794134016 178074 150600 167747 -342296
832781606812345728 178025 150637 167729 -342272
832781606830557312 178072 150624 167784 -342236
832781606848768896 178041 150591 167682 -342267
832781606866980480 178106 150596 167697 -342269
832781606885192192 178103 150655 167720 -342318
832781606903403776 178152 150758 167733 -342289
832781606921615360 178244 150878 167752 -342257
832781606939826944 178325 150951 167725 -342261
832781606958038656 178559 151119 167801 -342249
832781606976250240 178571 151179 167779 -342283
832781606994461824 178698 151299 167758 -342276
832781607012673408 178816 151348 167700 -342285
832781607030885120 179033 151593 167724 -342273
832781607049096704 178914 151539 167755 -342255
832781607067308288 178753 151379 167750 -342282
832781607085519872 178624 151252 167697 -342315
832781607103731584 178454 151058 167701 -342342
832781607121943168 178288 150906 167712 -342291
832781607140154752 178061 150681 167681 -342293
832781607158366336 177927 150494 167668 -342265
832781607176578048 177663 150260 167721 -342249
832781607194789632 177524 150101 167699 -342247
832781607213001216 177392 149992 167674 -342276
832781607231212800 177311 149938 167724 -342281
832781607249424512 177206 149866 167670 -342280
832781607267636096 177271 149849 167682 -342262
832781607285847680 177283 149903 167713 -342286
832781607304059264 177389 149946 167704 -342259
832781607322270976 177421 150032 167711 -342268
832781607340482560 177562 150147 167742 -342265
832781607358694144 177658 150231 167773 -342250
832781607376905788 177784 150352 167773 -342279
832781607395117312 177850 150419 167705 -342310
832781607413328896 177923 150499 167694 -342272
832781607431540608 177951 150561 167759 -342236
832781607449752192 178081 150693 167786 -342195
832781607467963776 178061 150647 167753 -342276
832781607486175360 178089 150642 167722 -342211
832781607504387072 177998 150664 167762 -342242
832781607522598656 178091 150688 167768 -342240
832781607540810240 178122 150690 167678 -342228
832781607559021824 178153 150758 167698 -342272
832781607577233536 178260 150870 167759 -342210
832781607595445120 178299 150940 167794 -342218
832781607613656704 178376 151068 167793 -342200
832781607631868288 178533 151152 167795 -342281
832781607650080000 178644 151285 167707 -342246
832781607668291584 178742 151407 167751 -342283
832781607686503168 178816 151451 167742 -342282
832781607704714752 178825 151427 167712 -342325
832781607722926464 178778 151385 167714 -342290
832781607741138048 178775 151308 167745 -342269
832781607759349632 178590 151216 167724 -342253
832781607777561216 178485 150998 167736 -342265
832781607795772928 178253 150769 167727 -342300
832781607813984512 178048 150615 167749 -342296
832781607832196096 177823 150411 167722 -342297
832781607850407680 177666 150259 167729 -342254
832781607868619392 177467 150086 167705 -342225
832781607886830976 177398 149969 167737 -342254
832781607905042560 177294 149922 167739 -342187
832781607923254144 177241 149837 167731 -342250
832781607941465856 177224 149845 167711 -342298
832781607959677440 177322 149931 167768 -342272
832781607977889024 177386 150007 167725 -342253
832781607996100608 177478 150212 167752 -342229
832781608014312320 177634 150240 167738 -342298
832781608032523904 177744 150331 167745 -342236
832781608050735488 177760 150459 167687 -342288
832781608068947072 177910 150550 167716 -342283
832781608087158784 177954 150552 167676 -342266
832781608105370368 177978 150543 167658 -342332
832781608123581952 177982 150622 167658 -342285
832781608141793680 177983 150633 167691 -342268
832781608160006400 178053 150662 167737 -342252
832781608178219136 178087 150654 167705 -342264
832781608196432000 178099 150651 167731 -342265
832781608214644736 178088 150700 167735 -342314
832781608232857472 178170 150772 167688 -342260
832781608251070336 178241 150823 167722 -342255
832781608269283072 178355 151006 167737 -342248
832781608287495808 178447 151093 167699 -342243
832781608305708672 178573 151160 167686 -342290
832781608323921408 178671 151283 167728 -342277
832781608342134144 178769 151383 167761 -342311
832781608360347008 178802 151464 167739 -342276
832781608378559744 178801 151392 167665 -342302
832781608396772480 178807 151368 167718 -342290
832781608414985344 178698 151256 167683 -342302
832781608433198080 178573 151143 167718 -342290
832781608451410816 178389 151010 167724 -342232
832781608469623680 178187 150776 167712 -342240
832781608487836416 177883 150509 167722 -342266
832781608506049152 177716 150428 167679 -342297
832781608524262016 177586 150214 167729 -342233
832781608542474752 177418 150050 167687 -342313
832781608560687488 177353 149928 167764 -342238
832781608578900352 177286 149865 167743 -342266
832781608597113088 177192 149810 167692 -342318
832781608615325824 177248 149870 167721 -342325
832781608633538688 177384 149962 167724 -342261
832781608651751424 177424 150036 167734 -342287
832781608669964160 177511 150139 167681 -342314
832781608688177024 177570 150154 167651 -342364
832781608706389760 177763 150363 167746 -342316
832781608724602496 177860 150430 167721 -342254
832781608742815360 177894 150532 167752 -342299
832781608761028096 177998 150628 167798 -342299
832781608779240832 178004 150682 167795 -342248
832781608797453696 178061 150688 167772 -342236
832781608815666432 178064 150666 167770 -342231
832781608833879168 178021 150607 167704 -342248
832781608852092032 178050 150727 167802 -342252
832781608870304768 178061 150700 167822 -342225
832781608888517504 178071 150704 167747 -342252
832781608906730402 178189 150771 167731 -342266
832781608924942336 178308 150833 167765 -342251
832781608943154304 178419 151012 167768 -342215
832781608961366144 178538 151056 167743 -342255
832781608979578112 178647 151212 167799 -342186
832781608997789952 178739 151299 167725 -342221
832781609016001920 178817 151436 167719 -342266
832781609034213760 178924 151448 167760 -342238
832781609052425728 178900 151472 167758 -342242
832781609070637568 178736 151323 167764 -342305
832781609088849536 178685 151215 167731 -342236
832781609107061376 178465 151065 167729 -342249
832781609125273344 178223 150905 167770 -342270
832781609143485184 177996 150672 167729 -342259
832781609161697152 177840 150523 167749 -342216
832781609179908992 177649 150313 167673 -342191
832781609198120960 177504 150110 167712 -342250
832781609216332800 177361 149989 167739 -342216
832781609234544768 177266 149816 167710 -342248
832781609252756608 177166 149818 167697 -342299
832781609270968576 177211 149867 167750 -342261
832781609289180416 177298 149953 167793 -342252
832781609307392384 177374 150054 167771 -342212
832781609325604352 177411 150125 167702 -342234
832781609343816192 177529 150197 167720 -342269
832781609362028160 177660 150287 167759 -342259
832781609380240000 177835 150428 167729 -342271
832781609398451968 177887 150523 167732 -342317
832781609416663808 177935 150516 167750 -342268
832781609434875776 177971 150633 167674 -342288
832781609453087616 178001 150622 167688 -342271
832781609471299584 178048 150680 167778 -342266
832781609489511424 178027 150679 167749 -342276
832781609507723392 178014 150659 167745 -342269
832781609525935232 177982 150640 167765 -342328
832781609544147200 178140 150685 167704 -342280
832781609562359040 178205 150739 167764 -342281
832781609580571008 178289 150822 167773 -342261
832781609598782848 178304 150849 167710 -342300
832781609616994816 178430 151008 167756 -342237
832781609635206656 178518 151142 167718 -342270
832781609653418624 178627 151219 167720 -342265
832781609671630500 178748 151358 167735 -342264
832781609689842688 178824 151471 167704 -342312
832781609708054912 178843 151403 167663 -342332
832781609726267136 178819 151371 167741 -342321
832781609744479232 178820 151318 167763 -342233
832781609762691456 178599 151112 167718 -342248
832781609780903680 178433 150932 167703 -342295
832781609799115904 178230 150816 167726 -342284
832781609817328128 177958 150537 167676 -342254
832781609835540224 177799 150343 167717 -342271
832781609853752448 177610 150141 167741 -342295
832781609871964672 177416 149991 167731 -342296
832781609890176896 177319 149921 167761 -342312
832781609908389120 177211 149920 167718 -342277
832781609926601216 177249 149830 167692 -342253
832781609944813440 177297 149856 167730 -342293
832781609963025664 177405 149994 167746 -342274
832781609981237888 177437 150034 167773 -342278
832781609999450112 177489 150096 167777 -342227
832781610017662208 177638 150239 167748 -342243
832781610035874432 177736 150427 167772 -342253
832781610054086656 177837 150402 167696 -342281
832781610072298880 177913 150503 167748 -342230
832781610090510976 177932 150582 167734 -342245
832781610108723200 178007 150600 167798 -342227
832781610126935424 178095 150699 167768 -342200
832781610145147648 178071 150697 167767 -342214
832781610163359872 178074 150699 167767 -342197
832781610181571968 178052 150681 167747 -342233
832781610199784192 178098 150693 167751 -342227
832781610217996416 178144 150707 167729 -342288
832781610236208640 178205 150813 167756 -342239
832781610254420864 178300 150816 167755 -342200
832781610272632960 178426 150935 167749 -342228
832781610290845184 178497 151056 167720 -342245
832781610309057408 178569 151251 167742 -342236
832781610327269632 178695 151316 167742 -342252
832781610345481856 178812 151392 167698 -342281
832781610363693952 178880 151456 167762 -342259
832781610381906176 178893 151456 167709 -342263
832781610400118400 178821 151361 167716 -342261
832781610418330624 178702 151283 167766 -342249
832781610436542808 178536 151106 167727 -342283
832781610454755968 178360 150946 167721 -342225
832781610472969088 178130 150736 167715 -342265
832781610491182208 178006 150584 167694 -342252
832781610509395456 177743 150354 167670 -342286
832781610527608576 177570 150172 167781 -342225
832781610545821696 177474 149982 167728 -342232
832781610564034816 177273 149832 167719 -342316
832781610582247936 177319 149844 167737 -342233
832781610600461056 177327 149884 167770 -342218
832781610618674304 177308 149930 167799 -342243
832781610636887424 177383 149962 167718 -342296
832781610655100544 177507 150072 167766 -342234
832781610673313664 177574 150174 167714 -342250
832781610691526784 177647 150278 167741 -342285
832781610709739904 177809 150402 167705 -342226
832781610727953152 177896 150483 167769 -342250
832781610746166272 177907 150518 167696 -342250
832781610764379392 178000 150637 167762 -342213
832781610782592512 178018 150640 167712 -342243
832781610800805632 178028 150670 167707 -342246
832781610819018752 178060 150651 167752 -342233
832781610837232000 178048 150659 167767 -342248
832781610855445120 178075 150633 167783 -342267
832781610873658240 178050 150700 167795 -342273
832781610891871360 178100 150767 167719 -342267
832781610910084480 178270 150795 167708 -342246
832781610928297728 178337 150937 167725 -342290
832781610946510848 178429 151040 167776 -342288
832781610964723968 178505 151122 167731 -342278
832781610982937088 178685 151262 167763 -342294
832781611001150208 178852 151471 167718 -342295
832781611019363328 178869 151497 167698 -342303
832781611037576576 178911 151451 167699 -342268
832781611055789696 178821 151458 167717 -342291
832781611074002816 178708 151409 167731 -342274
832781611092215936 178606 151260 167707 -342284
832781611110429056 178409 151080 167721 -342289
832781611128642176 178211 150793 167759 -342267
832781611146855424 178024 150628 167759 -342252
832781611165068544 177876 150442 167801 -342298
832781611183281664 177639 150254 167729 -342244
832781611201494788 177488 150078 167748 -342298
832781611219707136 177338 150024 167770 -342278
832781611237919488 177235 149868 167724 -342288
832781611256131968 177230 149855 167771 -342294
832781611274344320 177269 149901 167810 -342209
832781611292556800 177324 149933 167755 -342201
832781611310769152 177384 149969 167708 -342259
832781611328981632 177495 150130 167749 -342227
832781611347193984 177625 150256 167712 -342247
832781611365406464 177747 150360 167712 -342268
832781611383618816 177888 150442 167747 -342262
832781611401831296 178001 150521 167777 -342178
832781611420043648 178001 150561 167810 -342228
832781611438256128 178030 150703 167780 -342226
832781611456468480 178051 150651 167801 -342229
832781611474680960 178066 150579 167803 -342225
832781611492893312 178084 150583 167719 -342293
832781611511105792 178146 150749 167683 -342268
832781611529318144 178115 150750 167768 -342211
832781611547530624 178082 150727 167753 -342335
832781611565742976 178145 150815 167749 -342310
832781611583955456 178255 150845 167716 -342349
