TIMESTAMP PPG0 PPG1 PPG2 AMBIENT
832360092792119296 403588 342977 333187 180864
832360092810301056 403641 343068 333234 180886
832360092828482944 403661 343061 333204 180898
832360092846664704 403994 343278 333325 180850
832360092864846592 404180 343332 333358 180854
832360092883028352 404400 343413 333444 180881
832360092901210240 404624 343573 333446 180896
832360092919392000 404715 343645 333527 180936
832360092937573888 404965 343752 333578 180965
832360092955755648 405177 343805 333601 180940
832360092973937536 405286 343867 333684 180909
832360092992119296 405459 344012 333672 180903
832360093010301056 405517 343993 333718 180856
832360093028482944 405484 343968 333657 180890
832360093046664704 405667 344111 333753 180938
832360093064846592 405626 344093 333727 180871
832360093083028352 405593 344070 333747 180907
832360093101210240 405689 344096 333798 180922
832360093119392000 405609 344010 333703 180926
832360093137573888 405756 344129 333771 180922
832360093155755648 405815 344135 333748 180919
832360093173937536 405768 344179 333779 180928
832360093192119296 406015 344301 333783 180876
832360093210301056 406226 344400 333854 180873
832360093228482944 406351 344409 333885 180905
832360093246664704 406639 344556 333957 180888
832360093264846592 406742 344657 334005 180839
832360093283028352 406972 344765 334073 180902
832360093301210240 407222 344911 334160 180914
832360093319392000 407355 344933 334162 180873
832360093337573888 407379 344937 334222 180911
832360093355755648 407335 344978 334195 180908
832360093373937536 407081 344806 334132 180906
832360093392119296 406949 344764 334103 180873
832360093410301056 406609 344550 333968 180858
832360093428482944 406112 344343 333893 180904
832360093446664704 405888 344240 333861 180890
832360093464846592 405524 343991 333731 180931
832360093483028352 405035 343762 333626 180908
832360093501210240 404864 343682 333540 180948
832360093519392000 404472 343464 333410 180925
832360093537573828 404130 343288 333328 180932
832360093555789312 403927 343188 333290 180939
832360093574004736 403631 343011 333130 180887
832360093592220160 403601 342998 333148 180859
832360093610435712 403618 343036 333182 180944
832360093628651136 403443 342952 333173 180874
832360093646866560 403652 343033 333165 180886
832360093665081984 403805 343082 333234 180925
832360093683297408 403939 343224 333308 180974
832360093701512960 404296 343442 333386 180909
832360093719728384 404495 343428 333392 180920
832360093737943808 404671 343567 333469 180960
832360093756159232 404916 343683 333525 180969
832360093774374656 404964 343722 333586 180904
832360093792590208 405155 343809 333572 180908
832360093810805632 405337 343984 333657 180928
832360093829021056 405354 343904 333653 180872
832360093847236480 405496 343987 333716 180876
832360093865451904 405545 344028 333739 180916
832360093883667456 405445 343962 333665 180899
832360093901882880 405647 344112 333779 180919
832360093920098304 405596 344090 333717 180863
832360093938313728 405552 343983 333718 180867
832360093956529152 405710 344084 333781 180888
832360093974744704 405730 344162 333812 180959
832360093992960128 405786 344172 333777 180917
832360094011175552 405968 344296 333811 180938
832360094029390976 406005 344253 333783 180923
832360094047606400 406218 344400 333868 180957
832360094065821952 406497 344521 333952 180925
832360094084037376 406449 344529 333941 180932
832360094102252800 406832 344708 334028 180917
832360094120468224 407047 344822 334055 180899
832360094138683648 407194 344945 334115 180938
832360094156899200 407486 344967 334280 180933
832360094175114624 407448 344963 334241 180937
832360094193330048 407232 344877 334189 180923
832360094211545472 407151 344844 334132 180903
832360094229760896 406766 344664 334051 180911
832360094247976448 406465 344481 333960 180903
832360094266191872 406112 344285 333876 180855
832360094284407272 405558 344071 333729 180924
832360094302623488 405253 343947 333652 180904
832360094320839680 404986 343729 333583 180950
832360094339056000 404432 343503 333427 180902
832360094357272192 404251 343448 333329 180859
832360094375488384 404027 343240 333284 180900
832360094393704704 403770 343129 333223 180904
832360094411920896 403721 343117 333176 180864
832360094430137088 403570 343056 333151 180889
832360094448353408 403473 342988 333121 180883
832360094466569600 403619 343060 333191 180923
832360094484785792 403570 343018 333192 180879
832360094503002112 403806 343122 333247 180901
832360094521218304 404030 343269 333264 180919
832360094539434496 404201 343379 333365 180884
832360094557650816 404569 343515 333428 180926
832360094575867008 404710 343564 333465 180868
832360094594083200 404830 343659 333499 180901
832360094612299520 405094 343733 333559 180829
832360094630515712 405244 343882 333677 180889
832360094648731904 405312 343935 333689 180890
832360094666948224 405408 343960 333728 180886
832360094685164416 405457 343932 333669 180899
832360094703380608 405622 344075 333756 180940
832360094721596928 405629 344103 333733 180891
832360094739813120 405515 344008 333651 180952
832360094758029312 405647 344101 333777 180943
832360094776245632 405630 344062 333761 180926
832360094794461824 405587 343993 333700 180888
832360094812678016 405918 344134 333778 180883
832360094830894336 405840 344164 333771 180874
832360094849110528 405875 344163 333769 180877
832360094867326720 406122 344285 333871 180910
832360094885543040 406212 344352 333884 180935
832360094903759232 406459 344440 333957 180925
832360094921975424 406671 344617 334011 180857
832360094940191744 406770 344631 334028 180903
832360094958407936 407139 344844 334111 180922
832360094976624178 407286 344906 334137 180802
832360094994840960 407218 344914 334143 180868
832360095013057792 407385 344943 334173 180854
832360095031274752 407199 344904 334181 180920
832360095049491584 406972 344803 334130 180924
832360095067708544 406847 344703 334047 180975
832360095085925376 406364 344426 333874 180930
832360095104142208 405966 344293 333808 180925
832360095122359168 405590 344113 333753 180911
832360095140576000 405205 343868 333628 180953
832360095158792960 404937 343707 333572 180915
832360095177009792 404582 343489 333433 180876
832360095195226752 404119 343227 333295 180875
832360095213443584 403957 343271 333324 180845
832360095231660416 403745 343065 333203 180890
832360095249877376 403507 342985 333140 180888
832360095268094208 403610 343018 333173 180833
832360095286311168 403590 343049 333164 180922
832360095304528000 403573 343029 333160 180845
832360095322744832 403707 343092 333234 180859
832360095340961792 403844 343207 333240 180906
832360095359178624 404115 343294 333305 180935
832360095377395584 404372 343462 333418 180926
832360095395612416 404477 343497 333423 180898
832360095413829248 404703 343628 333452 180901
832360095432046208 404951 343729 333527 180894
832360095450263040 405022 343775 333525 180877
832360095468480000 405346 343950 333567 180870
832360095486696832 405425 343955 333655 180914
832360095504913664 405464 344000 333654 180938
832360095523130624 405599 344070 333708 180905
832360095541347456 405575 344029 333682 180910
832360095559564416 405493 343995 333685 180880
832360095577781248 405564 344060 333683 180826
832360095595998208 405539 344024 333677 180873
832360095614215040 405680 344058 333708 180864
832360095632431872 405656 344088 333735 180873
832360095650648832 405641 344038 333704 180917
832360095668865664 405849 344187 333810 180910
832360095687082624 405909 344254 333796 180845
832360095705299456 406053 344317 333875 180851
832360095723516288 406366 344438 333913 180867
832360095741733326 406466 344462 333956 180856
832360095759948160 406624 344551 333978 180897
832360095778162944 406902 344749 334071 180906
832360095796377600 407034 344750 334086 180918
832360095814592384 407306 344974 334186 180875
832360095832807168 407444 345049 334217 180905
832360095851021824 407272 344902 334175 180916
832360095869236608 407233 344928 334159 180872
832360095887451392 406929 344734 334079 180917
832360095905666048 406480 344551 333952 180799
832360095923880832 406357 344486 333907 180849
832360095942095616 405886 344222 333798 180868
832360095960310272 405432 343971 333610 180872
832360095978525056 405126 343814 333542 180910
832360095996739840 404766 343631 333486 180896
832360096014954496 404439 343442 333371 180859
832360096033169280 404149 343306 333283 180860
832360096051384064 403807 343098 333170 180833
832360096069598720 403684 343126 333200 180858
832360096087813504 403594 343034 333153 180875
832360096106028288 403420 342926 333160 180823
832360096124242944 403606 342995 333173 180801
832360096142457728 403679 343059 333203 180855
832360096160672512 403775 343139 333191 180892
832360096178887168 404026 343286 333230 180872
832360096197101952 404135 343284 333259 180897
832360096215316736 404291 343434 333374 180883
832360096233531392 404635 343560 333390 180908
832360096251746176 404656 343549 333462 180868
832360096269960960 404917 343742 333517 180924
832360096288175616 405139 343754 333581 180898
832360096306390400 405151 343841 333606 180853
832360096324605184 405323 343901 333591 180820
832360096342819840 405450 344018 333643 180857
832360096361034624 405377 343966 333591 180830
832360096379249408 405613 344101 333686 180858
832360096397464064 405556 344079 333695 180911
832360096415678848 405536 344051 333669 180870
832360096433893632 405612 344102 333677 180860
832360096452108288 405542 344049 333663 180845
832360096470323072 405697 344084 333714 180873
832360096488537856 405788 344128 333732 180856
832360096506752446 405791 344129 333730 180894
832360096524969344 406036 344290 333863 180924
832360096543186304 406193 344278 333898 180879
832360096561403136 406287 344367 333949 180874
832360096579620096 406619 344520 334029 180890
832360096597837056 406738 344657 334012 180900
832360096616053888 406913 344709 334002 180880
832360096634270848 407177 344862 334106 180852
832360096652487808 407226 344848 334142 180875
832360096670704768 407339 344953 334164 180856
832360096688921600 407302 344916 334110 180837
832360096707138560 407040 344791 334122 180864
832360096725355520 406870 344718 334072 180915
832360096743572352 406561 344553 334012 180904
832360096761789312 406089 344341 333917 180874
832360096780006272 405869 344204 333832 180915
832360096798223104 405365 343912 333636 180852
832360096816440064 404998 343776 333494 180839
832360096834657024 404779 343602 333456 180901
832360096852873856 404301 343334 333360 180890
832360096871090816 404041 343280 333295 180865
832360096889307776 403826 343148 333228 180900
832360096907524736 403641 343037 333198 180870
832360096925741568 403597 343031 333236 180902
832360096943958528 403526 343019 333147 180913
832360096962175488 403431 342951 333154 180898
832360096980392320 403636 343052 333197 180892
832360096998609280 403772 343080 333258 180887
832360097016826240 403966 343191 333266 180886
832360097035043072 404262 343399 333356 180931
832360097053260032 404423 343425 333412 180916
832360097071476992 404603 343528 333444 180842
832360097089693952 404832 343655 333474 180888
832360097107910784 405031 343784 333535 180857
832360097126127744 405221 343869 333641 180905
832360097144344704 405376 343951 333674 180877
832360097162561536 405362 343907 333619 180851
832360097180778496 405569 344006 333719 180914
832360097198995456 405614 344055 333654 180842
832360097217212288 405446 344019 333706 180904
832360097235429248 405638 344094 333746 180903
832360097253646208 405636 344050 333689 180891
832360097271863120 405628 344102 333698 180911
832360097290080128 405725 344102 333702 180906
832360097308297088 405742 344152 333764 180919
832360097326514176 405793 344122 333764 180897
832360097344731136 405889 344179 333716 180846
832360097362948224 406022 344309 333804 180911
832360097381165184 406211 344382 333865 180889
832360097399382272 406375 344510 333950 180905
832360097417599232 406454 344510 333945 180910
832360097435816320 406690 344673 334043 180866
832360097454033280 406960 344702 334062 180826
832360097472250368 407086 344794 334132 180881
832360097490467328 407438 344947 334187 180847
832360097508684416 407421 344954 334216 180845
832360097526901376 407227 344858 334208 180842
832360097545118336 407102 344847 334184 180868
832360097563335424 406744 344611 334049 180906
832360097581552384 406465 344517 333931 180900
832360097599769472 406123 344347 333839 180917
832360097617986432 405595 344028 333664 180896
832360097636203520 405328 343887 333627 180866
832360097654420480 404965 343691 333549 180868
832360097672637568 404419 343502 333359 180862
832360097690854528 404320 343436 333313 180882
832360097709071616 403981 343213 333252 180925
832360097727288576 403742 343070 333160 180905
832360097745505664 403725 343089 333145 180901
832360097763722624 403607 343014 333139 180885
832360097781939584 403518 342925 333126 180865
832360097800156672 403571 343033 333141 180857
832360097818373632 403621 343064 333147 180905
832360097836590720 403904 343170 333215 180849
832360097854807680 404148 343292 333293 180896
832360097873024768 404149 343272 333329 180866
832360097891241728 404509 343488 333368 180808
832360097909458816 404641 343585 333436 180851
832360097927675776 404733 343592 333439 180860
832360097945892824 405084 343767 333526 180840
832360097964108544 405243 343866 333619 180849
832360097982324224 405296 343915 333648 180890
832360098000539904 405397 343950 333607 180852
832360098018755584 405462 343900 333640 180900
832360098036971264 405519 343903 333634 180849
832360098055186944 405623 344027 333711 180864
832360098073402624 405496 343960 333654 180885
832360098091618304 405559 344022 333697 180819
832360098109833984 405637 344004 333713 180842
832360098128049664 405570 344025 333688 180856
832360098146265344 405791 344138 333697 180865
832360098164481024 405819 344167 333721 180870
832360098182696832 405926 344188 333766 180856
832360098200912512 406177 344348 333904 180885
832360098219128192 406309 344433 333916 180887
832360098237343872 406441 344528 333904 180869
832360098255559552 406677 344605 333975 180865
832360098273775232 406725 344663 333976 180865
832360098291990912 407050 344773 334102 180849
832360098310206592 407211 344830 334200 180884
832360098328422272 407236 344833 334144 180898
832360098346637952 407427 344986 334227 180913
832360098364853632 407224 344873 334173 180932
832360098383069312 406963 344732 334057 180890
832360098401284992 406760 344631 333971 180818
832360098419500672 406402 344431 333942 180931
832360098437716352 406027 344260 333866 180935
832360098455932032 405678 344025 333703 180928
832360098474147712 405184 343769 333626 180862
832360098492363392 404897 343693 333549 180877
832360098510579072 404519 343520 333416 180871
832360098528794752 404095 343214 333273 180873
832360098547010432 403924 343200 333266 180874
832360098565226112 403730 343121 333199 180855
832360098583441792 403528 342954 333141 180840
832360098601657600 403597 343037 333200 180939
832360098619873280 403482 343015 333171 180882
832360098638088960 403515 343002 333156 180871
832360098656304640 403733 343163 333233 180901
832360098674520320 403869 343163 333216 180893
832360098692736000 404094 343254 333305 180897
832360098710951618 404375 343442 333306 180900
832360098729168384 404446 343436 333403 180866
832360098747385088 404728 343611 333477 180893
832360098765601792 404929 343701 333511 180893
832360098783818496 404964 343765 333548 180872
832360098802035200 405266 343938 333623 180883
832360098820251904 405412 343976 333666 180904
832360098838468608 405428 343924 333675 180872
832360098856685312 405597 343988 333719 180897
832360098874902016 405509 343920 333678 180883
832360098893118720 405546 343984 333695 180868
832360098911335424 405609 344032 333717 180854
832360098929552128 405584 343975 333678 180882
832360098947768832 405636 344057 333685 180873
832360098965985536 405654 344105 333706 180868
832360098984202240 405605 344056 333635 180864
832360099002418944 405828 344177 333763 180899
832360099020635648 405966 344220 333787 180859
832360099038852352 406100 344278 333852 180864
832360099057069056 406392 344461 333947 180877
832360099075285760 406480 344451 333908 180852
832360099093502464 406701 344586 334023 180900
832360099111719168 406947 344736 334049 180891
832360099129935872 407055 344784 334122 180834
832360099148152576 407327 344938 334203 180904
832360099166369280 407374 344982 334212 180886
832360099184585984 407273 344831 334157 180862
832360099202802688 407234 344860 334173 180862
832360099221019392 407003 344776 334058 180877
832360099239236096 406616 344539 333935 180845
832360099257452800 406437 344448 333887 180870
832360099275669504 405934 344239 333786 180863
832360099293886208 405478 344058 333751 180918
832360099312102912 405208 343873 333571 180877
832360099330319616 404774 343615 333506 180880
832360099348536320 404436 343427 333386 180884
832360099366753024 404137 343373 333334 180881
832360099384969728 403782 343155 333219 180825
832360099403186432 403756 343139 333224 180885
832360099421403136 403613 343002 333163 180915
832360099439619840 403401 342917 333156 180870
832360099457836544 403593 343022 333217 180898
832360099476053136 403634 343060 333204 180886
832360099494269312 403640 343041 333191 180839
832360099512485504 404019 343189 333252 180865
832360099530701696 404177 343286 333315 180875
832360099548917888 404372 343440 333378 180923
832360099567134080 404628 343574 333456 180896
832360099585350272 404729 343648 333520 180881
832360099603566464 404961 343733 333511 180899
832360099621782656 405153 343787 333575 180837
832360099639998848 405173 343868 333554 180873
832360099658215040 405385 343986 333674 180856
832360099676431232 405502 344000 333718 180960
832360099694647424 405402 343937 333575 180882
832360099712863616 405582 344022 333694 180847
832360099731079808 405582 344077 333704 180915
832360099749296000 405503 344004 333694 180906
832360099767512192 405612 344077 333717 180927
832360099785728384 405543 344085 333747 180920
832360099803944576 405651 344083 333732 180852
832360099822160768 405785 344196 333777 180858
832360099840376960 405811 344201 333787 180909
832360099858593152 406014 344239 333849 180882
832360099876809344 406255 344339 333896 180886
832360099895025536 406285 344423 333930 180901
832360099913241728 406636 344517 334018 180869
832360099931457920 406750 344565 334037 180879
832360099949674112 406869 344718 334092 180871
832360099967890304 407137 344785 334160 180863
832360099986106496 407279 344913 334139 180876
832360100004322688 407352 344929 334121 180884
832360100022538880 407305 344929 334127 180910
832360100040755200 407034 344823 334090 180913
832360100058971392 406858 344647 334028 180909
832360100077187584 406537 344446 333876 180871
832360100095403776 406049 344259 333808 180915
832360100113619968 405783 344141 333760 180891
832360100131836160 405418 343916 333617 180898
832360100150052352 405012 343779 333573 180937
832360100168268544 404715 343587 333427 180855
832360100186484736 404292 343431 333324 180937
832360100204700928 404032 343290 333281 180926
832360100222917120 403875 343113 333241 180923
832360100241133292 403677 343090 333209 180961
832360100259348736 403558 343062 333137 180859
832360100277564160 403557 343003 333106 180871
832360100295779712 403508 342932 333171 180914
832360100313995136 403653 343050 333159 180951
832360100332210560 403786 343143 333228 180903
832360100350426112 403893 343214 333276 180838
832360100368641536 404238 343314 333289 180885
832360100386856960 404417 343480 333403 180874
832360100405072512 404540 343509 333430 180832
832360100423287936 404869 343667 333499 180876
832360100441503360 404978 343653 333494 180888
832360100459718912 405184 343853 333613 180942
832360100477934336 405273 343930 333628 180850
832360100496149760 405323 343925 333666 180897
832360100514365312 405436 344015 333708 180896
832360100532580736 405593 344060 333713 180877
832360100550796160 405480 343970 333695 180842
832360100569011712 405607 344074 333798 180886
832360100587227136 405547 344052 333751 180896
832360100605442560 405528 344017 333706 180857
832360100623658112 405717 344119 333779 180902
832360100641873536 405751 344175 333761 180871
832360100660088960 405806 344180 333803 180954
832360100678304512 405954 344263 333866 180920
832360100696519936 406034 344235 333827 180882
832360100714735488 406226 344329 333874 180902
832360100732950912 406469 344477 333983 180865
832360100751166336 406473 344530 333940 180823
832360100769381888 406825 344679 334070 180901
832360100787597312 407011 344826 334121 180916
832360100805812736 407109 344829 334172 180889
832360100824028288 407407 345015 334244 180879
832360100842243712 407363 344931 334195 180870
832360100860459136 407226 344861 334138 180849
832360100878674688 407078 344796 334096 180854
832360100896890112 406737 344657 334013 180870
832360100915105536 406440 344530 333969 180941
832360100933321088 406186 344312 333901 180941
832360100951536512 405707 344127 333783 180894
832360100969751936 405356 343892 333659 180852
832360100987967488 405000 343731 333531 180879
832360101006182930 404491 343452 333425 180873
832360101024399104 404286 343457 333426 180917
832360101042615296 403984 343225 333303 180832
832360101060831488 403696 343064 333257 180891
832360101079047680 403691 343060 333225 180894
832360101097263872 403518 342922 333188 180883
832360101115480064 403504 342944 333172 180845
832360101133696256 403586 343041 333167 180874
832360101151912448 403693 343073 333228 180961
832360101170128640 403887 343187 333225 180893
832360101188344832 404190 343317 333311 180905
832360101206561024 404186 343340 333357 180924
832360101224777216 404527 343499 333421 180923
832360101242993408 404744 343591 333482 180926
832360101261209600 404845 343689 333518 180848
832360101279425792 405218 343895 333621 180939
832360101297641984 405225 343852 333567 180893
832360101315858176 405303 343951 333704 180884
832360101334074368 405429 344053 333702 180907
832360101352290560 405520 343990 333706 180879
832360101370506752 405584 344008 333731 180898
832360101388722944 405679 344122 333732 180908
832360101406939136 405627 343994 333710 180958
832360101425155328 405662 344065 333721 180928
832360101443371520 405759 344129 333747 180984
832360101461587712 405646 344069 333731 180897
832360101479803904 405836 344187 333817 180919
832360101498020096 405861 344206 333814 180848
832360101516236288 405978 344293 333870 180938
832360101534452480 406194 344363 333893 180940
832360101552668672 406361 344430 333905 180964
832360101570884992 406448 344477 333942 180904
832360101589101184 406698 344598 334075 180936
832360101607317376 406858 344628 334094 180931
832360101625533568 407078 344761 334131 180871
832360101643749760 407277 344930 334152 180911
832360101661965952 407311 344941 334184 180899
832360101680182144 407448 344980 334178 180924
832360101698398336 407307 344902 334164 180943
832360101716614528 406975 344804 334114 180949
832360101734830720 406839 344718 334087 180880
832360101753046912 406432 344445 333964 180936
832360101771263086 406033 344282 333911 180919
832360101789480064 405673 344135 333784 180978
832360101807697024 405206 343835 333621 180911
832360101825913856 404916 343711 333564 180936
832360101844130816 404565 343499 333427 180921
832360101862347776 404164 343331 333362 180970
832360101880564608 403961 343287 333326 180922
832360101898781568 403744 343120 333218 180849
832360101916998528 403538 343062 333135 180911
832360101935215488 403597 343046 333151 180891
832360101953432320 403573 342997 333197 180887
832360101971649280 403600 343016 333168 180901
832360101989866240 403835 343111 333285 180932
832360102008083072 403962 343162 333284 180942
832360102026300032 404180 343358 333378 180915
832360102044516992 404418 343491 333466 180944
832360102062733824 404530 343504 333437 180910
832360102080950784 404799 343598 333479 180913
832360102099167744 404997 343678 333568 180860
832360102117384576 404992 343728 333537 180836
832360102135601536 405227 343846 333659 180850
832360102153818496 405406 343853 333629 180906
832360102172035456 405383 343919 333569 180871
832360102190252288 405622 344038 333692 180834
832360102208469248 405538 344038 333723 180925
832360102226686208 405596 344080 333768 180941
832360102244903040 405685 344068 333782 180952
832360102263120000 405602 344082 333782 180916
832360102281336960 405621 344076 333701 180877
832360102299553792 405678 344121 333820 180865
832360102317770752 405610 344093 333756 180917
832360102335987712 405892 344184 333841 180910
832360102354204672 405982 344282 333847 180908
832360102372421504 406105 344290 333916 180954
832360102390638464 406387 344429 333918 180866
832360102408855424 406463 344494 333990 180903
832360102427072256 406611 344566 334020 180921
832360102445289216 406898 344752 334085 180910
832360102463506176 407065 344822 334138 180904
832360102481723008 407249 344986 334188 180816
832360102499939968 407407 344950 334225 180932
832360102518156928 407284 344907 334230 180880
832360102536373760 407181 344889 334177 180854
832360102554591360 406985 344794 334181 180881
832360102572808960 406553 344521 334027 180940
832360102591026560 406303 344435 333988 180891
832360102609244032 405912 344178 333820 180860
832360102627461632 405499 343973 333704 180897
832360102645679232 405206 343827 333662 180933
832360102663896832 404813 343642 333521 180950
832360102682114432 404399 343439 333370 180856
832360102700331904 404106 343380 333324 180922
832360102718549504 403869 343174 333265 180875
832360102736767104 403688 343075 333240 180899
832360102754984704 403613 343100 333247 180867
832360102773202304 403460 342920 333141 180885
832360102791419776 403668 343042 333244 180909
832360102809637376 403665 343008 333214 180872
832360102827854976 403760 343093 333231 180931
832360102846072576 404122 343252 333335 180927
832360102864290176 404203 343352 333348 180908
832360102882507648 404432 343442 333422 180945
832360102900725248 404693 343572 333524 180961
832360102918942848 404793 343617 333489 180875
832360102937160448 405036 343790 333546 180922
832360102955378048 405248 343874 333598 180927
832360102973595520 405265 343916 333636 180868
832360102991813120 405445 343931 333645 180936
832360103010030720 405495 343997 333717 180967
832360103028248320 405459 343953 333654 180909
832360103046465920 405656 344093 333769 180901
832360103064683392 405636 344063 333720 180896
832360103082900992 405501 343971 333674 180849
832360103101118592 405628 344111 333753 180883
832360103119336192 405613 344105 333735 180910
832360103137553792 405643 344118 333756 180899
832360103155771392 405823 344185 333750 180892
832360103173988864 405817 344199 333783 180869
832360103192206464 405956 344242 333790 180938
832360103210424064 406227 344357 333867 180911
832360103228641664 406303 344451 333961 180883
832360103246859264 406588 344574 333953 180840
832360103265076736 406766 344694 334056 180891
832360103283294336 406863 344740 334043 180854
832360103301511902 407276 344887 334187 180883
832360103319728896 407374 344940 334197 180880
832360103337945856 407401 344924 334262 180919
832360103356162944 407354 344919 334137 180859
832360103374379904 407123 344859 334230 180952
832360103392596992 406872 344742 334090 180905
832360103410813952 406558 344534 333969 180886
832360103429030912 406067 344271 333858 180867
832360103447248000 405841 344155 333768 180927
832360103465464960 405444 343987 333658 180937
832360103483682048 404989 343794 333558 180911
832360103501899008 404723 343648 333497 180917
832360103520116096 404388 343477 333359 180926
832360103538333056 404062 343299 333264 180926
832360103556550016 403891 343223 333266 180905
832360103574767104 403668 343077 333188 180883
832360103592984064 403540 343052 333163 180894
832360103611201152 403571 343051 333181 180900
832360103629418112 403532 343016 333214 180867
832360103647635072 403676 343145 333276 180884
832360103665852160 403835 343207 333270 180890
832360103684069120 403981 343247 333262 180883
832360103702286208 404356 343481 333385 180940
832360103720503168 404477 343466 333397 180915
832360103738720256 404623 343559 333446 180899
832360103756937216 404959 343701 333542 180952
832360103775154176 405058 343746 333527 180871
832360103793371264 405227 343802 333582 180828
832360103811588224 405405 343928 333599 180805
832360103829805312 405339 343905 333627 180857
832360103848022272 405482 344001 333726 180859
832360103866239232 405619 344043 333768 180915
832360103884456320 405440 343964 333675 180890
832360103902673280 405648 344046 333801 180879
832360103920890368 405617 344071 333789 180884
832360103939107328 405606 344028 333756 180863
832360103957324288 405723 344102 333768 180882
832360103975541376 405800 344153 333781 180911
832360103993758336 405827 344147 333763 180873
832360104011975424 406034 344271 333824 180922
832360104030192384 406100 344342 333889 180951
832360104048409432 406277 344477 333919 180943
832360104066627200 406531 344578 333988 180948
832360104084844928 406533 344549 333938 180900
832360104103062528 406883 344693 334009 180959
832360104121280256 407080 344804 334096 180930
832360104139497984 407138 344813 334134 180897
832360104157715584 407402 344944 334156 180874
832360104175933312 407396 344966 334204 180887
832360104194150912 407266 344889 334174 180909
832360104212368640 407167 344834 334134 180921
832360104230586368 406840 344683 334071 180897
832360104248803968 406487 344475 334010 180945
832360104267021696 406165 344332 333921 180928
832360104285239424 405678 344054 333738 180938
832360104303457024 405371 343925 333668 180969
832360104321674752 405033 343835 333621 180955
832360104339892352 404485 343505 333408 180889
832360104358110080 404298 343417 333360 180925
832360104376327808 403969 343220 333265 180905
832360104394545408 403660 343149 333219 180871
832360104412763136 403700 343155 333258 180925
832360104430980864 403606 343029 333207 180904
832360104449198464 403607 343015 333202 180916
832360104467416192 403718 343049 333192 180902
832360104485633920 403711 343084 333281 180938
832360104503851520 403907 343145 333287 180907
832360104522069248 404119 343312 333288 180876
832360104540286848 404200 343367 333353 180851
832360104558504576 404505 343474 333449 180887
832360104576722304 404712 343640 333441 180905
832360104594939904 404720 343687 333489 180889
832360104613157632 405103 343846 333645 180908
832360104631375360 405263 343914 333721 180886
832360104649592960 405286 343901 333636 180898
832360104667810688 405518 344041 333680 180871
832360104686028416 405453 344036 333682 180888
832360104704246016 405499 344002 333722 180904
832360104722463744 405605 344040 333749 180863
832360104740681344 405547 344050 333759 180860
832360104758898992 405650 344080 333772 180905
832360104777116672 405726 344043 333754 180835
832360104795334400 405656 344058 333761 180901
832360104813552128 405756 344144 333763 180907
832360104831769856 405893 344253 333805 180938
832360104849987584 405899 344243 333791 180937
832360104868205312 406206 344345 333883 180900
832360104886423040 406352 344411 333922 180880
832360104904640768 406501 344504 334012 180917
832360104922858496 406812 344616 334040 180953
832360104941076096 406860 344710 334053 180885
832360104959293824 407097 344836 334129 180892
832360104977511552 407276 344964 334143 180865
832360104995729280 407299 344965 334181 180888
832360105013947008 407384 345020 334191 180892
832360105032164736 407210 344888 334207 180842
832360105050382464 406919 344717 334113 180871
832360105068600192 406840 344677 334074 180917
832360105086817920 406422 344444 333950 180881
832360105105035648 405963 344218 333807 180894
832360105123253376 405691 344093 333733 180909
832360105141471104 405217 343908 333640 180907
832360105159688832 404819 343659 333470 180858
832360105177906560 404541 343537 333454 180892
832360105196124288 404121 343286 333326 180886
832360105214342016 403935 343231 333281 180924
832360105232559616 403751 343167 333239 180942
832360105250777344 403507 343002 333136 180960
832360105268995072 403617 343058 333130 180873
832360105287212800 403491 342983 333172 180885
832360105305430528 403504 342954 333159 180864
832360105323648256 403782 343105 333226 180881
832360105341865984 403903 343193 333294 180908
832360105360083712 404108 343269 333344 180898
832360105378301440 404406 343475 333449 180921
832360105396519168 404564 343524 333460 180894
832360105414736896 404712 343621 333524 180928
832360105432954624 404935 343695 333569 180902
832360105451172352 405072 343795 333585 180930
832360105469390080 405325 343880 333670 180906
832360105487607808 405480 343992 333712 180926
832360105505825516 405397 343972 333680 180849
832360105524042496 405599 344063 333728 180866
832360105542259456 405621 344058 333668 180901
832360105560476544 405543 344067 333702 180925
832360105578693504 405685 344083 333756 180905
832360105596910464 405658 344044 333738 180883
832360105615127424 405692 344126 333772 180919
832360105633344512 405751 344152 333738 180973
832360105651561472 405702 344084 333780 180923
832360105669778432 405895 344237 333850 180876
832360105687995392 405976 344326 333828 180849
832360105706212480 406060 344282 333829 180891
832360105724429440 406384 344476 333920 180885
832360105742646400 406595 344539 333933 180944
832360105760863360 406638 344550 333939 180862
832360105779080448 406988 344757 334098 180900
832360105797297408 407143 344848 334136 180898
832360105815514368 407298 344957 334221 180896
832360105833731328 407464 345000 334243 180891
832360105851948416 407284 344878 334157 180875
832360105870165376 407245 344915 334142 180896
832360105888382336 407029 344790 334055 180889
832360105906599424 406606 344641 334005 180919
832360105924816384 406315 344484 333928 180917
832360105943033344 405925 344267 333795 180850
832360105961250304 405445 343998 333666 180909
832360105979467392 405221 343878 333572 180901
832360105997684352 404786 343601 333512 180886
832360106015901312 404325 343458 333408 180909
832360106034118272 404163 343346 333356 180937
832360106052335360 403863 343180 333267 180918
832360106070552320 403745 343122 333232 180917
832360106088769280 403676 343096 333171 180951
832360106106986240 403571 342981 333187 180917
832360106125203328 403614 343054 333234 180857
832360106143420288 403745 343067 333231 180938
832360106161637248 403744 343087 333202 180936
832360106179854208 404094 343331 333308 180948
832360106198071296 404230 343422 333385 180930
832360106216288256 404384 343522 333448 180926
832360106234505216 404744 343560 333480 180953
832360106252722176 404815 343650 333480 180945
832360106270939244 405076 343789 333573 180925
832360106289156992 405220 343854 333582 180925
832360106307374720 405338 343933 333661 180932
832360106325592448 405422 344006 333720 180918
832360106343810176 405563 344017 333701 180892
832360106362027904 405508 344051 333748 180858
832360106380245632 405599 344072 333691 180886
832360106398463360 405645 344096 333745 180915
832360106416681088 405606 344063 333729 180916
832360106434898816 405696 344068 333712 180839
832360106453116416 405702 344072 333763 180904
832360106471334144 405673 344062 333774 180932
832360106489551872 405856 344138 333804 180953
832360106507769600 405859 344154 333829 180953
832360106525987328 406010 344267 333899 180898
832360106544205056 406290 344382 333896 180905
832360106562422784 406336 344398 333922 180860
832360106580640512 406655 344605 334055 180940
832360106598858240 406813 344640 334050 180915
832360106617075968 406869 344688 334067 180901
832360106635293696 407231 344896 334186 180885
832360106653511424 407403 344952 334165 180908
832360106671729152 407367 344913 334244 180888
832360106689946880 407342 344999 334216 180945
832360106708164608 407122 344814 334170 180943
832360106726382336 406875 344719 334114 180880
832360106744599936 406638 344556 334046 180905
832360106762817664 406190 344321 333874 180882
832360106781035392 405824 344129 333772 180910
832360106799253120 405474 343935 333649 180859
832360106817470848 404975 343700 333498 180893
832360106835688576 404752 343636 333492 180891
832360106853906304 404318 343451 333402 180860
832360106872124032 404011 343230 333320 180901
832360106890341760 403963 343243 333287 180935
832360106908559488 403689 343127 333208 180890
832360106926777216 403567 343035 333179 180871
832360106944994944 403554 343072 333221 180876
832360106963212672 403605 343061 333202 180894
832360106981430400 403677 343112 333202 180815
832360106999648128 403799 343181 333182 180865
832360107017865856 403913 343175 333200 180900
832360107036083488 404282 343369 333437 180860
832360107054300800 404420 343439 333449 180920
832360107072518144 404610 343505 333495 180930
832360107090735488 404905 343759 333601 180883
832360107108952832 405080 343790 333563 180931
832360107127170176 405231 343857 333642 180852
832360107145387520 405427 343923 333676 180901
832360107163604992 405432 343939 333682 180958
832360107181822336 405545 344028 333694 180875
832360107200039680 405717 344099 333787 180936
832360107218257024 405549 344040 333730 180931
832360107236474368 405620 344071 333736 180904
832360107254691712 405619 344035 333689 180891
832360107272909056 405451 344031 333675 180869
832360107291126400 405653 344105 333747 180822
832360107309343744 405772 344096 333768 180896
832360107327561088 405808 344179 333781 180914
832360107345778560 406036 344224 333810 180923
832360107363995904 406123 344331 333891 180888
832360107382213248 406268 344424 333955 180967
832360107400430592 406509 344517 333986 180879
832360107418647936 406610 344556 333960 180893
832360107436865280 406846 344665 334040 180910
832360107455082624 407026 344784 334108 180899
832360107473299968 407098 344788 334118 180867
832360107491517312 407380 344932 334210 180833
832360107509734656 407452 344916 334209 180838
832360107527952128 407211 344795 334174 180838
832360107546169472 407180 344814 334145 180867
832360107564386816 406836 344632 334078 180888
832360107582604160 406477 344480 333862 180921
832360107600821504 406152 344278 333802 180905
832360107619038848 405651 344101 333693 180944
832360107637256192 405325 343868 333616 180867
832360107655473536 404934 343721 333545 180891
832360107673690880 404511 343475 333431 180910
832360107691908224 404287 343394 333403 180937
832360107710125696 403977 343281 333356 180908
832360107728343040 403702 343122 333226 180953
832360107746560384 403767 343077 333253 180916
832360107764777728 403643 343053 333203 180932
832360107782995072 403515 342995 333193 180873
832360107801212472 403631 343024 333206 180881
832360107819428736 403704 343065 333164 180926
832360107837645056 403887 343231 333298 180924
832360107855861504 404160 343293 333387 180928
832360107874077824 404251 343358 333344 180904
832360107892294272 404530 343456 333376 180830
832360107910510592 404693 343532 333421 180848
832360107928727040 404786 343625 333476 180849
832360107946943360 405099 343813 333535 180866
832360107965159680 405213 343888 333567 180891
832360107983376128 405325 343937 333607 180838
832360108001592448 405599 344061 333693 180910
832360108019808896 405590 344055 333685 180917
832360108038025216 405584 344037 333694 180893
832360108056241664 405725 344169 333800 180933
832360108074457984 405573 344128 333680 180858
832360108092674432 405637 344094 333701 180862
832360108110890752 405669 344136 333729 180881
832360108129107072 405538 344031 333676 180853
832360108147323520 405855 344123 333779 180983
832360108165539840 405853 344122 333789 180917
832360108183756288 405895 344211 333787 180917
832360108201972608 406180 344353 333926 180877
832360108220189056 406355 344450 333942 180910
832360108238405376 406472 344489 333987 180886
832360108256621696 406707 344601 334021 180884
832360108274838144 406849 344705 334075 180853
832360108293054464 407140 344863 334190 180910
832360108311270912 407317 344899 334165 180894
832360108329487232 407364 344966 334263 180934
832360108347703680 407364 344996 334279 180902
832360108365920000 407236 344869 334161 180877
832360108384136448 406936 344748 334105 180936
832360108402352768 406814 344653 334011 180882
832360108420569088 406485 344495 333962 180879
832360108438785536 406006 344311 333830 180910
832360108457001856 405730 344120 333764 180944
832360108475218304 405289 343853 333591 180901
832360108493434624 404907 343708 333532 180950
832360108511651072 404593 343566 333463 180915
832360108529867392 404191 343367 333345 180911
832360108548083712 403973 343251 333329 180907
832360108566300258 403776 343131 333232 180857
832360108584516480 403537 343030 333192 180866
832360108602732672 403593 343032 333158 180858
832360108620948864 403606 343025 333210 180920
832360108639165056 403551 343099 333214 180919
832360108657381248 403819 343218 333321 180925
832360108675597440 403958 343315 333277 180927
832360108693813632 404089 343391 333373 180926
832360108712029824 404401 343562 333469 180956
832360108730246016 404570 343557 333489 180955
832360108748462208 404783 343631 333516 180886
832360108766678400 405015 343759 333602 180926
832360108784894592 405044 343810 333611 180921
832360108803110784 405291 343932 333665 180944
832360108821326976 405451 343967 333731 180921
832360108839543168 405449 344020 333709 180898
832360108857759360 405630 344101 333771 180907
832360108875975552 405614 344075 333704 180832
832360108894191744 405555 344027 333710 180890
832360108912407936 405750 344222 333784 180926
832360108930624128 405707 344181 333750 180906
832360108948840320 405715 344151 333744 180906
832360108967056512 405718 344157 333736 180860
832360108985272704 405712 344112 333756 180894
832360109003488896 405955 344261 333845 180948
832360109021705088 406094 344318 333872 180940
832360109039921280 406125 344301 333813 180898
832360109058137472 406402 344469 333943 180941
832360109076353664 406608 344529 334052 180894
832360109094569856 406750 344635 334077 180932
832360109112786048 407032 344820 334137 180877
832360109131002368 407126 344851 334169 180898
832360109149218560 407321 344991 334212 180893
832360109167434752 407511 345061 334232 180881
832360109185650944 407316 344937 334160 180820
832360109203867136 407231 344915 334188 180921
832360109222083328 407031 344772 334203 180935
832360109240299520 406571 344499 334025 180879
832360109258515712 406299 344403 333970 180876
832360109276731904 405907 344190 333830 180896
832360109294948096 405396 343925 333659 180915
832360109313164288 405203 343870 333571 180921
832360109331380414 404742 343628 333447 180871
832360109349597696 404460 343486 333365 180922
832360109367815040 404108 343324 333274 180879
832360109386032384 403881 343185 333268 180905
832360109404249600 403737 343107 333245 180875
832360109422466944 403649 343116 333210 180888
832360109440684288 403517 343084 333194 180873
832360109458901632 403585 343037 333175 180897
832360109477118976 403673 343103 333203 180938
832360109495336320 403671 343080 333182 180865
832360109513553536 404027 343246 333311 180910
832360109531770880 404234 343369 333357 180897
832360109549988224 404344 343449 333403 180914
832360109568205568 404656 343621 333461 180834
832360109586422912 404814 343691 333523 180876
832360109604640128 404959 343782 333566 180868
832360109622857472 405193 343926 333596 180884
832360109641074816 405304 343935 333650 180868
832360109659292160 405482 344037 333715 180914
832360109677509504 405601 344057 333754 180949
832360109695726848 405478 344022 333682 180937
832360109713944064 405633 344073 333757 180925
832360109732161408 405579 344084 333705 180893
832360109750378752 405560 344042 333710 180898
832360109768596096 405707 344158 333743 180877
832360109786813440 405736 344184 333816 180902
832360109805030656 405721 344105 333801 180955
832360109823248000 405773 344124 333726 180885
832360109841465344 405855 344163 333819 180871
832360109859682688 406070 344306 333885 180917
832360109877900032 406281 344356 333922 180846
832360109896117248 406331 344424 333944 180869
832360109914334592 406631 344611 334001 180871
832360109932551936 406789 344657 334067 180916
832360109950769280 406895 344711 334054 180891
832360109968986624 407252 344882 334117 180909
832360109987203968 407426 345015 334193 180902
832360110005421184 407438 345066 334182 180961
832360110023638528 407399 344994 334218 180892
832360110041855872 407163 344781 334146 180952
832360110060073216 406818 344723 334098 180904
832360110078290560 406572 344528 334010 180884
832360110096507874 406132 344338 333890 180857
832360110114725120 405803 344150 333795 180904
832360110132942336 405416 343955 333693 180867
832360110151159552 404950 343689 333548 180907
832360110169376896 404724 343595 333498 180905
832360110187594112 404387 343438 333425 180902
832360110205811328 404009 343225 333296 180883
832360110224028544 403921 343196 333266 180868
832360110242245888 403726 343124 333210 180943
832360110260463104 403588 343028 333119 180914
832360110278680320 403608 343026 333160 180940
832360110296897536 403585 343063 333180 180971
832360110315114880 403713 343095 333226 180942
832360110333332096 403813 343156 333232 180922
832360110351549312 404008 343251 333328 180922
832360110369766528 404348 343362 333422 180896
832360110387983872 404551 343504 333481 180945
832360110406201088 404588 343481 333440 180921
832360110424418304 404928 343678 333546 180855
832360110442635520 405068 343771 333606 180961
832360110460852864 405158 343952 333668 180950
832360110479070080 405448 343987 333685 180908
832360110497287296 405491 343923 333771 180920
832360110515504512 405552 344008 333699 180892
832360110533721856 405644 344093 333737 180884
832360110551939072 405541 344058 333723 180883
832360110570156288 405646 344050 333749 180932
832360110588373504 405654 344082 333770 180934
832360110606590848 405556 344010 333686 180922
832360110624808064 405716 344139 333722 180944
832360110643025280 405752 344100 333753 180889
832360110661242496 405849 344187 333800 180903
832360110679459840 406029 344299 333888 180887
832360110697677056 406101 344334 333905 180927
832360110715894272 406330 344402 333886 180920
832360110734111488 406539 344474 333949 180860
832360110752328832 406572 344535 333957 180846
832360110770546048 406889 344675 334093 180916
832360110788763264 407130 344817 334147 180890
832360110806980480 407217 344795 334179 180905
832360110825197824 407435 344973 334244 180858
832360110843415040 407364 344973 334182 180840
832360110861632280 407176 344862 334130 180899
832360110879849728 407131 344873 334135 180874
832360110898067200 406802 344713 334015 180925
832360110916284672 406493 344488 333942 180869
832360110934502144 406113 344333 333869 180845
832360110952719616 405685 344090 333738 180848
832360110970937088 405360 343930 333671 180892
832360110989154560 404971 343763 333579 180865
832360111007372032 404559 343555 333471 180931
832360111025589504 404284 343418 333348 180890
832360111043806976 403971 343236 333241 180834
832360111062024448 403672 343147 333150 180931
832360111080241792 403637 343114 333214 180931
832360111098459264 403568 343055 333194 180927
832360111116676736 403457 343055 333123 180905
832360111134894208 403746 343065 333187 180924
832360111153111680 403734 343071 333208 180893
832360111171329152 403863 343203 333266 180904
832360111189546624 404137 343291 333305 180924
832360111207764096 404333 343434 333370 180940
832360111225981568 404502 343538 333438 180937
832360111244199040 404757 343666 333541 180915
832360111262416512 404807 343682 333566 180923
832360111280633984 405169 343809 333651 180977
832360111298851456 405234 343821 333630 180902
832360111317068928 405308 343904 333665 180918
832360111335286400 405502 344001 333684 180910
832360111353503872 405496 344005 333654 180919
832360111371721344 405514 344052 333725 180947
832360111389938816 405679 344085 333802 180917
832360111408156288 405565 344027 333718 180906
832360111426373760 405673 344048 333716 180905
832360111444591232 405703 344118 333747 180971
832360111462808576 405660 344083 333734 180881
832360111481026048 405790 344178 333796 180871
832360111499243520 405911 344268 333829 180940
832360111517460992 405878 344215 333825 180948
832360111535678464 406173 344409 333897 180928
832360111553895936 406275 344363 333919 180857
832360111572113408 406455 344480 333936 180900
832360111590330880 406795 344649 334054 180971
832360111608548352 406903 344718 334118 180958
832360111626765844 407050 344779 334111 180868
832360111644982272 407351 344956 334196 180916
832360111663198720 407407 344924 334184 180923
832360111681415296 407472 345009 334234 180924
832360111699631744 407240 344873 334170 180884
832360111717848192 406921 344732 334071 180906
832360111736064640 406775 344727 334042 180892
832360111754281216 406407 344545 333972 180874
832360111772497664 405897 344245 333835 180940
832360111790714112 405662 344076 333756 180915
832360111808930688 405253 343905 333634 180911
832360111827147136 404883 343686 333546 180924
832360111845363584 404522 343548 333409 180897
832360111863580032 404240 343338 333382 180942
832360111881796608 403949 343253 333307 180899
832360111900013056 403767 343122 333226 180890
832360111918229504 403507 343009 333189 180890
832360111936446080 403556 343054 333240 180883
832360111954662528 403556 343041 333213 180939
832360111972878976 403491 343019 333142 180870
832360111991095424 403723 343138 333226 180906
832360112009312000 403894 343233 333281 180906
832360112027528448 404105 343314 333322 180936
832360112045744896 404409 343436 333442 180843
832360112063961472 404527 343510 333405 180884
832360112082177920 404736 343638 333511 180897
832360112100394368 404929 343661 333555 180859
832360112118610816 405074 343801 333577 180911
832360112136827392 405261 343899 333651 180855
832360112155043840 405443 343971 333662 180811
832360112173260288 405371 343972 333612 180924
832360112191476864 405553 344034 333735 180940
832360112209693312 405622 344086 333735 180903
832360112227909760 405596 344082 333757 180866
832360112246126208 405718 344177 333823 180883
832360112264342784 405710 344070 333702 180880
832360112282559232 405669 344051 333714 180923
832360112300775680 405816 344126 333781 180906
832360112318992256 405780 344087 333793 180906
832360112337208704 405941 344174 333832 180885
832360112355425152 406127 344275 333868 180881
832360112373641600 406220 344368 333928 180928
832360112391858204 406448 344485 333992 180900
832360112410073472 406588 344598 333996 180879
832360112428288768 406675 344596 334012 180875
832360112446504064 407008 344761 334069 180813
832360112464719360 407157 344858 334147 180855
832360112482934656 407326 344938 334164 180902
832360112501149952 407475 344960 334233 180886
832360112519365248 407310 344920 334224 180885
832360112537580544 407217 344878 334222 180915
832360112555795840 407075 344730 334091 180953
832360112574011136 406642 344551 334035 180910
832360112592226432 406242 344377 333872 180908
832360112610441728 405884 344243 333824 180923
832360112628657024 405410 344035 333672 180943
832360112646872320 405173 343896 333607 180932
832360112665087616 404854 343722 333578 180939
832360112683302912 404335 343458 333393 180915
832360112701518208 404200 343337 333353 180954
832360112719733504 403845 343137 333164 180923
832360112737948800 403717 343088 333180 180908
832360112756164096 403681 343118 333183 180909
832360112774379392 403536 343013 333119 180959
832360112792594688 403634 343062 333182 180922
832360112810809984 403759 343072 333220 180915
832360112829025280 403721 343056 333241 180931
832360112847240576 403996 343282 333319 180927
832360112865455872 404274 343386 333392 180913
832360112883671168 404375 343472 333448 180942
832360112901886464 404696 343593 333463 180897
832360112920101760 404821 343627 333506 180852
832360112938317056 404953 343717 333580 180862
832360112956532352 405286 343934 333688 180848
832360112974747648 405328 343955 333730 180866
832360112992962944 405492 344016 333715 181002
832360113011178240 405550 344010 333709 180851
832360113029393536 405492 343934 333675 180941
832360113047608832 405590 344083 333660 180851
832360113065824128 405604 344095 333740 180871
832360113084039424 405508 344061 333736 180856
832360113102254684 405685 344136 333730 180875
832360113120471680 405757 344128 333785 180897
832360113138688640 405749 344212 333845 180905
832360113156905472 405844 344172 333786 180927
832360113175122432 405907 344257 333810 180919
832360113193339392 405990 344272 333821 180862
832360113211556224 406213 344373 333844 180893
832360113229773184 406466 344474 333939 180931
832360113247990144 406677 344533 333972 180941
832360113266207104 406911 344719 334051 180950
832360113284423936 406876 344696 334049 180921
832360113302640896 407185 344881 334183 180905
832360113320857856 407424 344988 334226 180889
832360113339074688 407355 344954 334225 180871
832360113357291648 407381 345011 334247 180949
832360113375508608 407141 344827 334154 180865
832360113393725440 406902 344734 334077 180896
832360113411942400 406628 344622 333988 180877
832360113430159360 406122 344351 333839 180833
832360113448376192 405845 344205 333733 180917
832360113466593152 405499 344001 333680 180896
832360113484810112 405024 343835 333582 180937
832360113503027072 404690 343633 333492 180911
832360113521243904 404345 343439 333466 180901
832360113539460864 404008 343241 333342 180944
832360113557677824 403888 343183 333259 180918
832360113575894656 403707 343094 333252 180932
832360113594111616 403568 343004 333174 180884
832360113612328576 403588 343088 333210 180901
832360113630545408 403579 343048 333126 180919
832360113648762368 403678 343121 333215 180901
832360113666979328 403866 343231 333271 180921
832360113685196288 404016 343239 333304 180901
832360113703413120 404280 343411 333355 180877
832360113721630080 404491 343549 333422 180896
832360113739847040 404526 343564 333363 180831
832360113758063872 404865 343704 333535 180882
832360113776280832 405003 343821 333556 180905
832360113794497792 405126 343805 333624 180907
832360113812714624 405439 343994 333697 180898
832360113830931584 405471 344005 333715 180901
832360113849148544 405518 344019 333782 180957
832360113867365358 405654 344028 333819 180892
832360113885581568 405617 344022 333733 180904
832360113903797760 405687 344101 333772 180932
832360113922013952 405730 344201 333798 180911
832360113940230144 405569 344095 333718 180910
832360113958446336 405683 344144 333772 180911
832360113976662528 405761 344134 333767 180926
832360113994878720 405710 344113 333785 180886
832360114013094912 406034 344294 333871 180896
832360114031311104 406063 344305 333845 180903
832360114049527296 406256 344352 333917 180872
832360114067743488 406567 344566 334000 180889
832360114085959680 406635 344588 333994 180905
832360114104175872 406836 344717 334042 180853
832360114122392064 407153 344868 334147 180932
832360114140608256 407210 344894 334145 180908
832360114158824448 407410 345015 334234 180936
832360114177040640 407421 345005 334286 180869
832360114195256832 407216 344894 334199 180854
832360114213473024 407140 344846 334157 180839
832360114231689216 406883 344715 334069 180853
832360114249905408 406424 344547 333958 180876
832360114268121600 406263 344414 333919 180913
832360114286337792 405756 344162 333743 180910
832360114304553984 405414 343993 333677 180959
832360114322770176 405025 343720 333561 180894
832360114340986368 404588 343485 333426 180869
832360114359202560 404316 343374 333333 180824
832360114377418752 403995 343216 333287 180850
832360114395634944 403676 343060 333208 180847
832360114413851136 403710 343109 333252 180918
832360114432067456 403668 343095 333222 180930
832360114450283648 403517 343031 333125 180843
832360114468499840 403684 343127 333196 180871
832360114486716032 403749 343185 333236 180906
832360114504932224 403893 343198 333241 180924
832360114523148416 404197 343351 333339 180886
832360114541364608 404323 343375 333395 180866
832360114559580800 404571 343538 333426 180883
832360114577796992 404795 343623 333482 180911
832360114596013184 404853 343601 333550 180893
832360114614229320 405139 343758 333641 180885
832360114632445568 405320 343942 333691 180909
832360114650661760 405315 343971 333722 180933
832360114668877952 405559 344016 333762 180933
832360114687094144 405618 344075 333752 180909
832360114705310336 405627 344005 333752 180891
832360114723526528 405698 344108 333752 180890
832360114741742720 405592 344095 333711 180930
832360114759958912 405621 344028 333701 180903
832360114778175104 405729 344139 333783 180917
832360114796391296 405629 344110 333708 180916
832360114814607488 405788 344194 333726 180887
832360114832823680 405884 344208 333740 180898
832360114851039872 405902 344242 333781 180925
832360114869256064 406225 344360 333884 180902
832360114887472256 406386 344479 333915 180893
832360114905688448 406424 344469 333943 180868
832360114923904640 406814 344698 334069 180875
832360114942120832 406885 344723 334069 180834
832360114960337024 407032 344808 334111 180859
832360114978553216 407359 344879 334201 180900
832360114996769408 407395 345012 334242 180921
832360115014985600 407348 344936 334212 180892
832360115033201792 407248 344808 334160 180843
832360115051417984 406880 344702 334086 180876
832360115069634176 406766 344625 333981 180873
832360115087850368 406398 344441 333900 180837
832360115106066560 405912 344197 333752 180881
832360115124282752 405666 344049 333751 180913
832360115142499072 405237 343860 333638 180909
832360115160715264 404797 343612 333521 180942
832360115178931456 404560 343570 333480 180916
832360115197147648 404190 343342 333274 180885
832360115215363840 403993 343241 333272 180918
832360115233580032 403825 343229 333268 180891
832360115251796224 403593 343078 333193 180932
832360115270012416 403628 343048 333201 180936
832360115288228608 403558 343077 333146 180887
832360115306444800 403526 343043 333154 180904
832360115324660992 403808 343158 333206 180868
832360115342877184 403935 343253 333275 180864
832360115361093376 404149 343300 333329 180880
832360115379309480 404471 343422 333386 180850
832360115397524864 404622 343525 333489 180899
832360115415740288 404726 343588 333464 180898
832360115433955712 404999 343726 333600 180899
832360115452171136 405117 343810 333601 180919
832360115470386560 405271 343863 333609 180916
832360115488601984 405466 343995 333652 180828
832360115506817280 405420 343943 333630 180886
832360115525032704 405583 344029 333697 180945
832360115543248128 405622 344089 333756 180957
832360115561463552 405507 344069 333705 180926
832360115579678976 405695 344133 333807 180914
832360115597894400 405671 344151 333742 180911
832360115616109824 405602 344105 333728 180899
832360115634325248 405759 344142 333711 180890
832360115652540672 405773 344207 333752 180926
832360115670756096 405922 344261 333789 180917
832360115688971392 406075 344323 333838 180958
832360115707186816 406170 344373 333901 180941
832360115725402240 406494 344505 333977 180924
832360115743617664 406629 344584 333973 180908
832360115761833088 406677 344623 333972 180876
832360115780048512 407064 344845 334159 180923
832360115798263936 407245 344909 334228 180889
832360115816479360 407357 345018 334210 180871
832360115834694784 407488 345011 334189 180893
832360115852910208 407359 344995 334222 180888
832360115871125504 407145 344839 334103 180873
832360115889340928 407025 344748 334107 180916
832360115907556352 406691 344618 334041 180982
832360115925771776 406356 344431 333883 180927
832360115943987200 405942 344191 333849 180907
832360115962202624 405428 343946 333723 180890
832360115980418048 405255 343865 333621 180900
832360115998633472 404831 343703 333551 180880
832360116016848896 404393 343473 333378 180893
832360116035064320 404218 343357 333290 180860
832360116053279744 403911 343207 333298 180888
832360116071495040 403695 343037 333274 180924
832360116089710536 403711 343069 333309 180955
832360116107927424 403559 343002 333231 180889
832360116126144256 403618 343114 333216 180908
832360116144360960 403716 343106 333264 180914
832360116162577792 403788 343163 333300 180945
832360116180794496 404095 343308 333298 180910
832360116199011328 404222 343353 333318 180947
832360116217228032 404340 343442 333426 180888
832360116235444864 404691 343643 333506 180948
832360116253661568 404784 343666 333495 180873
832360116271878400 404956 343779 333597 180930
832360116290095232 405157 343875 333630 180935
832360116308311936 405274 343968 333694 180841
832360116326528768 405471 343988 333746 180932
832360116344745472 405581 344044 333717 180928
832360116362962304 405526 344029 333729 180904
832360116381179008 405664 344078 333764 180911
832360116399395840 405654 344093 333768 180923
832360116417612544 405527 344028 333731 180925
832360116435829376 405666 344129 333756 180926
832360116454046208 405656 344111 333777 180917
832360116472262912 405652 344133 333821 180890
832360116490479744 405869 344236 333810 180917
832360116508696448 405888 344209 333815 180971
832360116526913280 406055 344243 333784 180903
832360116545129984 406335 344451 333906 180940
832360116563346816 406471 344447 333999 180898
832360116581563648 406677 344557 334007 180915
832360116599780352 406880 344704 334129 180969
832360116617997184 406976 344751 334119 180936
832360116636213888 407291 344966 334263 180905
832360116654430720 407471 345076 334254 180877
832360116672647424 407413 344993 334226 180922
832360116690864256 407402 345042 334290 180915
832360116709080960 407231 344924 334220 180893
832360116727297792 406856 344715 334077 180867
832360116745514624 406678 344587 334039 180964
832360116763731328 406239 344266 333876 180874
832360116781948160 405822 344118 333803 180857
832360116800164864 405410 343928 333666 180914
832360116818381696 404991 343695 333621 180914
832360116836598400 404716 343583 333499 180913
832360116854815106 404408 343465 333389 180890
832360116873030656 403975 343288 333359 180917
832360116891246208 403952 343246 333303 180947
832360116909461888 403698 343102 333204 180903
832360116927677440 403540 343043 333160 180864
832360116945893120 403673 343073 333193 180869
832360116964108672 403694 343098 333193 180887
832360116982324352 403671 343085 333183 180880
832360117000539904 403866 343237 333234 180919
832360117018755584 404029 343301 333361 180957
832360117036971136 404315 343416 333405 180918
832360117055186816 404520 343538 333463 180910
832360117073402368 404547 343486 333461 180889
832360117091618048 404837 343628 333496 180886
832360117109833600 405087 343737 333559 180952
832360117128049280 405198 343841 333637 180936
832360117146264832 405492 344025 333721 180937
832360117164480512 405477 344000 333693 180858
832360117182696064 405580 344044 333735 180915
832360117200911744 405584 344088 333679 180891
832360117219127296 405563 344070 333715 180874
832360117237342976 405638 344046 333735 180855
832360117255558528 405623 344052 333744 180877
832360117273774080 405643 344084 333737 180877
832360117291989760 405717 344125 333772 180922
832360117310205312 405862 344245 333793 180919
832360117328420992 405836 344156 333768 180901
832360117346636544 405992 344334 333822 180882
832360117364852224 406201 344355 333899 180939
832360117383067776 406311 344401 333925 180901
832360117401283456 406537 344533 333974 180874
832360117419499008 406672 344652 334052 180906
832360117437714688 406913 344717 334051 180887
832360117455930240 407148 344811 334071 180921
832360117474145920 407320 344898 334159 180908
832360117492361472 407446 345000 334217 180872
832360117510577152 407452 345017 334234 180914
832360117528792704 407170 344868 334141 180879
832360117547008384 407171 344891 334121 180984
832360117565223936 406876 344727 334089 180848
832360117583439616 406412 344416 333938 180879
832360117601655168 406184 344338 333855 180853
832360117619870848 405715 344105 333725 180880
832360117638086912 405372 343965 333672 180950
832360117656302976 405004 343772 333598 180928
832360117674519040 404536 343530 333453 180903
832360117692734976 404335 343391 333363 180870
832360117710951040 404063 343300 333377 180972
832360117729167104 403682 343124 333224 180919
832360117747383168 403677 343113 333222 180915
832360117765599232 403634 343070 333214 180910
832360117783815296 403562 342998 333187 180837
832360117802031232 403758 343132 333249 180925
832360117820247296 403754 343085 333224 180870
832360117838463360 403884 343163 333312 180890
832360117856679424 404168 343346 333388 180914
832360117874895488 404313 343416 333447 180924
832360117893111552 404500 343461 333437 180869
832360117911327488 404764 343639 333539 180871
832360117929543552 404873 343675 333510 180881
832360117947759616 405164 343787 333598 180893
832360117965975680 405247 343913 333641 180943
832360117984191744 405265 343939 333674 180964
832360118002407680 405488 344034 333733 180856
832360118020623744 405601 344079 333796 180941
832360118038839808 405528 343989 333753 180943
832360118057055872 405696 344095 333784 180901
832360118075271936 405594 344063 333754 180925
832360118093488000 405555 344037 333709 180884
832360118111703936 405604 344065 333740 180901
832360118129920000 405630 344093 333736 180923
832360118148136064 405781 344136 333800 180910
832360118166352128 405928 344203 333850 180948
832360118184568192 405951 344242 333911 180964
832360118202784256 406213 344397 333944 180928
832360118221000192 406378 344451 333978 180900
832360118239216256 406493 344511 333990 180897
832360118257432320 406802 344675 334041 180904
832360118275648384 406969 344770 334108 180923
832360118293864448 407129 344817 334180 180899
832360118312080512 407447 344993 334229 180899
832360118330296448 407446 344916 334173 180829
832360118348512512 407454 344991 334241 180843
832360118366728192 407234 344894 334098 180816
832360118384943872 406926 344667 334076 180896
832360118403159424 406822 344632 334051 180897
832360118421375104 406442 344467 333976 180874
832360118439590784 405916 344284 333871 180883
832360118457806336 405613 344140 333737 180930
832360118476022016 405286 343872 333615 180927
832360118494237568 404870 343708 333535 180901
832360118512453248 404627 343528 333498 180911
832360118530668928 404241 343408 333407 180903
832360118548884480 403995 343240 333285 180872
832360118567100160 403802 343176 333298 180911
832360118585315840 403603 343066 333157 180886
832360118603531392 403602 343109 333233 180875
832360118621747072 403587 343021 333166 180900
832360118639962624 403549 343053 333149 180887
832360118658178304 403771 343165 333244 180914
832360118676393984 403960 343252 333308 180923
832360118694609536 404123 343348 333350 180887
832360118712825216 404430 343483 333424 180923
832360118731040896 404593 343575 333503 180917
832360118749256448 404753 343673 333516 180885
832360118767472128 405022 343721 333615 180863
832360118785687680 405119 343811 333606 180888
832360118803903360 405347 343879 333674 180907
832360118822119040 405477 344006 333706 180899
832360118840334592 405411 344009 333715 180850
832360118858550272 405628 344076 333773 180932
832360118876765952 405679 344105 333762 180930
832360118894981504 405522 343940 333686 180858
832360118913197184 405733 344118 333820 180921
832360118931412736 405717 344053 333720 180919
832360118949628416 405707 344130 333761 180932
832360118967844096 405850 344262 333842 180916
832360118986059648 405795 344194 333815 180905
832360119004275328 405842 344209 333806 180880
832360119022491008 406025 344361 333883 180876
832360119040706530 406164 344344 333840 180882
832360119058923520 406403 344476 333933 180914
832360119077140480 406578 344561 333983 180911
832360119095357312 406659 344579 334037 180910
832360119113574272 407073 344796 334128 180871
832360119131791104 407204 344871 334179 180875
832360119150008064 407341 344981 334209 180927
832360119168224896 407513 345000 334175 180889
832360119186441856 407415 345021 334201 180877
832360119204658688 407204 344908 334193 180900
832360119222875648 407087 344799 334126 180931
832360119241092480 406642 344566 334061 180900
832360119259309440 406317 344419 333902 180879
832360119277526272 405883 344191 333841 180914
832360119295743232 405332 343909 333720 180919
832360119313960064 405136 343840 333595 180851
832360119332177024 404797 343610 333499 180906
832360119350393856 404382 343417 333363 180863
832360119368610816 404219 343394 333392 180879
832360119386827648 403944 343226 333290 180873
832360119405044608 403753 343078 333242 180923
832360119423261440 403703 343096 333244 180937
832360119441478400 403609 342984 333223 180913
832360119459695232 403632 343012 333216 180888
832360119477912192 403756 343093 333278 180892
832360119496129024 403684 343025 333222 180908
832360119514345984 403956 343224 333250 180856
832360119532562816 404256 343384 333365 180887
832360119550779776 404396 343486 333380 180913
832360119568996736 404775 343683 333476 180930
832360119587213568 404808 343640 333469 180856
832360119605430528 404972 343753 333535 180937
832360119623647360 405247 343901 333620 180902
832360119641864320 405345 343901 333657 180921
832360119660081152 405474 343974 333757 180943
832360119678298112 405544 344043 333761 180879
832360119696514944 405542 343985 333711 180860
832360119714731904 405638 344035 333747 180933
832360119732948736 405712 344103 333787 180882
832360119751165570 405556 344045 333713 180909
832360119769381888 405725 344144 333827 180900
832360119787598208 405724 344136 333772 180901
832360119805814528 405689 344050 333750 180899
832360119824030848 405954 344184 333873 180941
832360119842247040 405972 344265 333831 180964
832360119860463360 406063 344323 333847 180944
832360119878679680 406253 344430 333892 180887
832360119896896000 406400 344480 333961 180939
832360119915112320 406594 344614 334001 180872
832360119933328640 406867 344736 334035 180913
832360119951544960 406993 344750 334112 180905
832360119969761280 407259 344904 334209 180886
832360119987977472 407426 344952 334289 180910
832360120006193792 407368 344981 334223 180948
832360120024410112 407427 345010 334314 180992
832360120042626432 407177 344863 334209 180859
832360120060842752 406877 344710 334132 180884
832360120079059072 406641 344594 334029 180905
832360120097275392 406174 344347 333903 180927
832360120115491712 405805 344171 333866 180938
832360120133707904 405494 344035 333768 180886
832360120151924224 405067 343784 333579 180876
832360120170140544 404714 343655 333498 180904
832360120188356864 404413 343455 333437 180956
832360120206573184 404051 343253 333313 180930
832360120224789504 403847 343179 333241 180897
832360120243005824 403744 343118 333243 180893
832360120261222016 403600 343019 333196 180923
832360120279438336 403701 342993 333202 180856
832360120297654656 403645 343026 333168 180849
832360120315870976 403722 343173 333193 180935
832360120334087296 403915 343271 333265 180931
832360120352303616 404091 343340 333328 180937
832360120370519936 404344 343483 333413 180924
832360120388736256 404553 343486 333448 180916
832360120406952448 404549 343534 333507 180925
832360120425168768 404945 343712 333623 180990
832360120443385088 405069 343837 333640 180917
832360120461601408 405192 343849 333630 180931
832360120479817728 405439 344029 333751 180953
832360120498034048 405546 343981 333756 180873
832360120516250304 405547 344015 333700 180873
832360120534467328 405680 344118 333816 180941
832360120552684288 405617 344090 333805 180872
832360120570901376 405655 344135 333790 180971
832360120589118336 405678 344122 333790 180950
832360120607335296 405576 344072 333701 180924
832360120625552256 405718 344102 333804 180958
832360120643769344 405841 344129 333814 180907
832360120661986304 405767 344160 333784 180919
832360120680203264 405975 344265 333874 180889
832360120698420224 406129 344346 333893 180936
832360120716637312 406294 344406 333964 180948
832360120734854272 406604 344558 334011 180904
832360120753071232 406706 344619 334086 180907
832360120771288192 406929 344760 334160 180944
832360120789505280 407136 344840 334141 180940
832360120807722240 407219 344856 334142 180874
832360120825939200 407420 344980 334198 180853
832360120844156160 407454 345009 334260 180908
832360120862373248 407162 344892 334167 180914
832360120880590208 407051 344880 334172 180885
832360120898807168 406819 344700 334091 180900
832360120917024128 406363 344485 333992 180913
832360120935241216 406152 344412 333913 180902
832360120953458176 405732 344215 333796 180920
832360120971675136 405274 343977 333636 180888
832360120989892224 404991 343773 333631 180913
832360121008109184 404559 343559 333450 180887
832360121026326144 404238 343403 333390 180920
832360121044543104 404031 343332 333322 180890
832360121062760192 403806 343162 333291 180901
832360121080977152 403682 343090 333205 180851
832360121099194112 403655 343051 333181 180921
832360121117411072 403505 342963 333158 180925
832360121135628160 403626 343095 333201 180873
832360121153845120 403696 343122 333208 180879
832360121172062080 403848 343184 333264 180884
832360121190279040 404144 343322 333303 180904
832360121208496128 404326 343361 333337 180922
832360121226713088 404572 343495 333453 180876
832360121244930048 404765 343630 333488 180921
832360121263147008 404915 343710 333505 180936
832360121281364030 405077 343794 333609 180934
832360121299581696 405235 343852 333624 180873
832360121317799424 405213 343894 333625 180884
832360121336017152 405435 344035 333679 180894
832360121354234880 405565 344065 333701 180887
832360121372452608 405487 344085 333738 180891
832360121390670336 405670 344141 333710 180886
832360121408888064 405600 344085 333686 180931
832360121427105792 405607 344055 333769 180913
832360121445323520 405693 344111 333806 180893
832360121463541120 405609 344108 333729 180889
832360121481758848 405744 344194 333759 180883
832360121499976576 405868 344225 333757 180873
832360121518194304 405930 344228 333771 180884
832360121536412032 406181 344408 333921 180928
832360121554629760 406358 344432 333951 180892
832360121572847488 406451 344505 333960 180882
832360121591065216 406780 344667 334050 180933
832360121609282944 406897 344783 334117 180961
832360121627500672 407061 344829 334192 180948
832360121645718400 407298 344944 334217 180872
832360121663936128 407397 344983 334283 180896
832360121682153856 407447 344988 334274 180969
832360121700371584 407311 344903 334241 180855
832360121718589312 406998 344743 334121 180853
832360121736807040 406728 344657 334088 180921
832360121755024640 406432 344431 333970 180952
832360121773242368 405901 344188 333801 180897
832360121791460096 405646 344097 333804 180891
832360121809677824 405292 343902 333632 180917
832360121827895552 404860 343709 333575 180887
832360121846113280 404614 343542 333475 180859
832360121864331008 404221 343387 333375 180898
832360121882548736 403977 343226 333242 180923
832360121900766464 403781 343128 333210 180900
832360121918984192 403583 343020 333183 180890
832360121937201920 403575 342979 333187 180886
832360121955419648 403611 343055 333236 180920
832360121973637376 403562 342998 333171 180883
832360121991855114 403807 343135 333287 180881
832360122010072576 403971 343236 333327 180893
832360122028290048 404106 343308 333353 180908
832360122046507520 404439 343462 333443 180868
832360122064725120 404616 343560 333473 180867
832360122082942592 404758 343597 333523 180908
832360122101160064 405041 343710 333560 180931
832360122119377536 405123 343786 333609 180927
832360122137595136 405289 343935 333640 180905
832360122155812608 405419 343919 333704 180872
832360122174030080 405449 343958 333675 180887
832360122192247552 405575 344016 333718 180873
832360122210465152 405654 344103 333749 180910
832360122228682624 405536 343992 333714 180933
832360122246900096 405724 344089 333739 180889
832360122265117568 405648 344052 333713 180884
832360122283335168 405581 344009 333743 180888
832360122301552640 405790 344155 333817 180907
832360122319770112 405817 344117 333798 180849
832360122337987584 405923 344237 333801 180920
832360122356205056 406026 344344 333908 180859
832360122374422656 406167 344374 333909 180871
832360122392640128 406378 344501 333972 180863
832360122410857600 406618 344594 334003 180916
832360122429075072 406658 344638 334061 180899
832360122447292672 407019 344706 334130 180879
832360122465510144 407215 344829 334109 180834
832360122483727616 407304 344886 334215 180860
832360122501945088 407547 345077 334274 180882
832360122520162688 407365 344958 334188 180854
832360122538380160 407135 344870 334225 180913
832360122556597632 407035 344764 334161 180894
832360122574815104 406640 344587 334029 180910
832360122593032704 406290 344430 333948 180841
832360122611250176 405939 344206 333823 180883
832360122629467648 405493 343948 333706 180913
832360122647685120 405155 343782 333583 180869
832360122665902592 404810 343696 333561 180854
832360122684120192 404342 343466 333442 180868
832360122702337664 404221 343399 333392 180951
832360122720555136 403944 343176 333306 180965
832360122738772608 403708 343068 333271 180930
832360122756990202 403713 343100 333211 180936
832360122775206656 403580 343053 333172 180885
832360122793423104 403614 343090 333224 180921
832360122811639680 403726 343168 333275 180952
832360122829856128 403769 343126 333194 180896
832360122848072576 404012 343291 333289 180877
832360122866289024 404202 343373 333342 180863
832360122884505600 404289 343376 333413 180848
832360122902722048 404621 343588 333465 180888
832360122920938496 404827 343675 333511 180862
832360122939155072 405018 343765 333586 180935
832360122957371520 405289 343891 333663 180855
832360122975587968 405329 343980 333670 180892
832360122993804416 405388 343990 333716 180995
832360123012020992 405553 344031 333773 180925
832360123030237440 405499 343993 333714 180899
832360123048453888 405600 344051 333723 180888
832360123066670464 405695 344122 333751 180893
832360123084886912 405623 344039 333687 180874
832360123103103360 405668 344086 333766 180875
832360123121319808 405686 344094 333739 180890
832360123139536384 405663 344112 333770 180903
832360123157752832 405890 344233 333844 180849
832360123175969280 405904 344263 333822 180854
832360123194185856 406006 344247 333835 180856
832360123212402304 406310 344441 333930 180865
832360123230618752 406433 344483 333931 180924
832360123248835200 406599 344607 333965 180892
832360123267051776 406823 344663 334115 180887
832360123285268224 406932 344800 334125 180919
832360123303484672 407265 344898 334224 180932
832360123321701248 407420 345028 334231 180954
832360123339917696 407360 344942 334261 180956
832360123358134144 407320 344971 334157 180905
832360123376350720 407125 344868 334172 180908
832360123394567168 406869 344700 334137 180947
832360123412783616 406655 344533 333969 180853
832360123431000064 406196 344346 333849 180874
832360123449216640 405714 344105 333727 180872
832360123467433088 405387 343991 333660 180902
832360123485649536 404991 343807 333555 180883
832360123503866112 404679 343669 333520 180881
832360123522082566 404321 343454 333405 180913
832360123540299520 403964 343266 333256 180930
832360123558516480 403881 343204 333227 180906
832360123576733568 403720 343089 333191 180900
832360123594950528 403547 343025 333186 180865
832360123613167488 403639 343099 333224 180874
832360123631384448 403654 343019 333225 180901
832360123649601536 403636 343107 333232 180913
832360123667818496 403869 343225 333257 180874
832360123686035456 404050 343303 333350 180947
832360123704252416 404205 343356 333361 180931
832360123722469504 404390 343464 333429 180854
832360123740686464 404596 343523 333473 180876
832360123758903424 404869 343680 333549 180874
832360123777120384 405127 343782 333632 180923
832360123795337472 405180 343829 333608 180918
832360123813554432 405413 344044 333732 180920
832360123831771392 405543 344052 333721 180904
832360123849988352 405501 344044 333744 180937
832360123868205440 405717 344110 333752 180922
832360123886422400 405662 344124 333770 180887
832360123904639360 405665 344156 333730 180907
832360123922856320 405668 344118 333777 180883
832360123941073408 405630 344124 333759 180894
832360123959290368 405737 344143 333783 180860
832360123977507328 405815 344207 333765 180866
832360123995724416 405818 344178 333740 180925
832360124013941376 406011 344273 333812 180914
832360124032158336 406165 344283 333866 180884
832360124050375296 406303 344404 333900 180871
832360124068592384 406521 344518 334002 180902
832360124086809344 406619 344604 334018 180897
832360124105026304 406815 344713 334064 180927
832360124123243264 407135 344873 334149 180893
832360124141460352 407312 344901 334146 180918
832360124159677312 407500 345021 334290 180926
832360124177894272 407535 345097 334261 180942
832360124196111232 407277 344914 334199 180884
832360124214328320 407128 344847 334136 180849
832360124232545280 406900 344721 334073 180896
832360124250762240 406469 344504 334010 180886
832360124268979200 406216 344317 333917 180939
832360124287196292 405758 344124 333851 180852
832360124305413632 405262 343896 333679 180924
832360124323630976 404969 343758 333524 180872
832360124341848320 404558 343596 333414 180873
832360124360065664 404193 343434 333373 180920
832360124378283008 403993 343240 333294 180903
832360124396500352 403759 343165 333252 180938
832360124414717696 403681 343138 333233 180969
832360124432935040 403639 343124 333228 180948
832360124451152384 403520 342991 333171 180939
832360124469369728 403752 343129 333213 180956
832360124487587072 403801 343180 333274 180901
832360124505804416 403846 343217 333211 180855
832360124524021632 404197 343407 333279 180879
832360124542238976 404358 343445 333338 180832
832360124560456320 404542 343571 333454 180874
832360124578673664 404742 343652 333500 180883
832360124596891008 404831 343752 333544 180900
832360124615108352 405069 343880 333613 180887
832360124633325696 405306 343966 333668 180850
832360124651543040 405442 343990 333695 180904
832360124669760384 405552 344046 333776 180854
832360124687977728 405586 344072 333757 180872
832360124706195072 405519 344057 333770 180851
832360124724412416 405649 344144 333778 180892
832360124742629760 405657 344075 333716 180880
832360124760847104 405632 344040 333733 180882
832360124779064448 405683 344128 333737 180887
832360124797281792 405671 344150 333807 180958
832360124815499136 405774 344198 333764 180903
832360124833716480 405912 344270 333836 180885
832360124851933824 405979 344250 333844 180917
832360124870151168 406256 344346 333937 180938
832360124888368512 406395 344461 333999 180920
832360124906585856 406407 344480 333998 180856
832360124924803200 406723 344682 334010 180934
832360124943020544 406930 344748 334139 180882
832360124961237760 407038 344769 334176 180852
832360124979455104 407424 344958 334266 180933
832360124997672448 407497 345005 334256 180915
832360125015889836 407428 344962 334226 180876
