TIMESTAMP PPG0 PPG1 PPG2 AMBIENT
832428692778642944 266608 173434 171718 -3178
832428692796824704 266611 173468 171739 -3176
832428692815006592 266666 173478 171667 -3162
832428692833188352 266656 173500 171724 -3187
832428692851370240 266616 173511 171765 -3170
832428692869552000 266563 173431 171719 -3188
832428692887733888 266536 173410 171725 -3168
832428692905915648 266362 173335 171614 -3188
832428692924097536 266499 173385 171701 -3154
832428692942279296 266484 173395 171707 -3205
832428692960461184 266539 173433 171760 -3215
832428692978642944 266603 173503 171775 -3181
832428692996824704 266622 173461 171758 -3184
832428693015006592 266627 173415 171754 -3170
832428693033188352 266603 173458 171708 -3198
832428693051370240 266556 173436 171690 -3163
832428693069552000 266545 173408 171648 -3154
832428693087733888 266493 173417 171649 -3156
832428693105915648 266392 173332 171594 -3174
832428693124097536 266443 173375 171678 -3194
832428693142279296 266494 173413 171627 -3227
832428693160461184 266589 173510 171768 -3153
832428693178642944 266567 173459 171742 -3145
832428693196824704 266493 173424 171699 -3172
832428693215006592 266580 173481 171729 -3133
832428693233188352 266624 173480 171768 -3200
832428693251370240 266587 173382 171666 -3257
832428693269552000 266533 173437 171706 -3182
832428693287733888 266465 173366 171667 -3199
832428693305915648 266349 173345 171583 -3178
832428693324097536 266390 173347 171623 -3190
832428693342279296 266469 173374 171666 -3208
832428693360461184 266576 173394 171730 -3190
832428693378642944 266593 173385 171747 -3214
832428693396824704 266653 173447 171731 -3203
832428693415006592 266642 173409 171766 -3208
832428693433188352 266734 173466 171754 -3214
832428693451370240 266637 173474 171761 -3176
832428693469552000 266512 173396 171695 -3221
832428693487733888 266407 173358 171595 -3210
832428693505915648 266458 173375 171724 -3170
832428693524097598 266507 173367 171694 -3157
832428693542309760 266570 173364 171724 -3215
832428693560521984 266606 173393 171717 -3161
832428693578734336 266556 173395 171768 -3166
832428693596946560 266579 173441 171726 -3168
832428693615158784 266636 173432 171761 -3218
832428693633371136 266576 173491 171709 -3237
832428693651583360 266581 173464 171699 -3241
832428693669795584 266494 173400 171644 -3254
832428693688007936 266381 173394 171610 -3265
832428693706220160 266495 173434 171662 -3205
832428693724432384 266548 173351 171631 -3252
832428693742644736 266542 173407 171690 -3213
832428693760856960 266552 173374 171693 -3234
832428693779069184 266578 173437 171734 -3189
832428693797281536 266654 173459 171753 -3123
832428693815493760 266605 173402 171672 -3183
832428693833705984 266580 173393 171655 -3235
832428693851918336 266560 173417 171740 -3228
832428693870130560 266500 173390 171620 -3174
832428693888342784 266442 173326 171641 -3180
832428693906555136 266454 173335 171665 -3149
832428693924767360 266509 173300 171643 -3230
832428693942979584 266557 173366 171718 -3180
832428693961191936 266553 173362 171673 -3273
832428693979404160 266533 173400 171695 -3237
832428693997616384 266570 173446 171761 -3218
832428694015828608 266573 173419 171763 -3253
832428694034040960 266630 173379 171710 -3153
832428694052253184 266620 173475 171740 -3185
832428694070465408 266487 173410 171747 -3196
832428694088677760 266358 173333 171646 -3212
832428694106889984 266437 173379 171654 -3180
832428694125102208 266516 173436 171679 -3195
832428694143314560 266550 173393 171696 -3220
832428694161526784 266545 173395 171691 -3225
832428694179739008 266586 173434 171704 -3188
832428694197951360 266657 173487 171803 -3157
832428694216163584 266642 173504 171807 -3140
832428694234375808 266658 173449 171732 -3171
832428694252588160 266588 173430 171707 -3239
832428694270800384 266460 173359 171669 -3221
832428694289012608 266439 173280 171622 -3182
832428694307224960 266462 173343 171639 -3247
832428694325437184 266546 173348 171634 -3201
832428694343649408 266590 173398 171680 -3201
832428694361861760 266559 173418 171677 -3193
832428694380074088 266514 173382 171680 -3258
832428694398285952 266556 173404 171694 -3148
832428694416497792 266544 173330 171642 -3225
832428694434709632 266627 173419 171725 -3126
832428694452921472 266493 173423 171620 -3207
832428694471133312 266394 173346 171565 -3221
832428694489345152 266401 173322 171559 -3280
832428694507556864 266453 173296 171588 -3266
832428694525768704 266486 173395 171669 -3271
832428694543980544 266428 173320 171670 -3298
832428694562192384 266526 173370 171721 -3268
832428694580404224 266578 173403 171676 -3229
832428694598616064 266560 173326 171692 -3274
832428694616827904 266658 173391 171687 -3238
832428694635039744 266569 173351 171673 -3211
832428694653251584 266520 173419 171637 -3190
832428694671463424 266410 173358 171595 -3170
832428694689675264 266484 173343 171624 -3216
832428694707886976 266535 173392 171701 -3198
832428694726098816 266564 173410 171758 -3187
832428694744310656 267251 173776 172011 -3181
832428694762522496 268291 174293 172384 -3166
832428694780734336 269084 174681 172686 -3149
832428694798946176 269288 174728 172786 -3188
832428694817158016 268782 174527 172628 -3186
832428694835369856 267987 174109 172298 -3173
832428694853581696 267073 173665 171948 -3170
832428694871793536 266236 173198 171565 -3191
832428694890005376 265824 173033 171380 -3153
832428694908217088 265694 172956 171324 -3215
832428694926428928 265922 173073 171438 -3240
832428694944640768 266363 173278 171637 -3172
832428694962852608 266833 173517 171846 -3174
832428694981064448 267279 173777 172019 -3212
832428694999276288 267588 173954 172111 -3215
832428695017488128 267669 174006 172144 -3215
832428695035699914 267831 174024 172192 -3242
832428695053912192 268069 174154 172235 -3255
832428695072124416 268355 174349 172440 -3230
832428695090336768 268896 174655 172672 -3233
832428695108548992 269465 174924 172816 -3213
832428695126761216 269635 174988 172930 -3222
832428695144973568 269205 174799 172744 -3298
832428695163185792 268497 174339 172442 -3177
832428695181398144 267570 173893 172117 -3208
832428695199610368 266675 173491 171773 -3165
832428695217822592 266104 173167 171512 -3174
832428695236034944 265795 172974 171387 -3114
832428695254247168 265852 173053 171347 -3166
832428695272459392 266157 173163 171504 -3211
832428695290671744 266606 173385 171703 -3204
832428695308883968 267114 173656 171900 -3170
832428695327096192 267414 173895 172047 -3142
832428695345308544 267657 173992 172143 -3134
832428695363520768 267771 174031 172170 -3221
832428695381733120 268060 174099 172301 -3238
832428695399945344 268480 174355 172549 -3217
832428695418157568 268895 174584 172621 -3288
832428695436369920 269379 174884 172854 -3283
832428695454582144 269584 174951 172896 -3225
832428695472794368 269265 174789 172774 -3271
832428695491006720 268615 174444 172553 -3247
832428695509218944 267745 173940 172197 -3223
832428695527431168 266836 173514 171878 -3210
832428695545643520 266157 173203 171543 -3268
832428695563855744 265800 173043 171466 -3256
832428695582068096 265842 173027 171434 -3206
832428695600280320 266178 173171 171610 -3185
832428695618492544 266522 173356 171690 -3186
832428695636704896 266950 173612 171856 -3199
832428695654917120 267189 173683 171945 -3223
832428695673129382 267465 173850 172054 -3156
832428695691342464 267677 173960 172163 -3136
832428695709555584 267883 174079 172191 -3194
832428695727768704 268188 174251 172393 -3220
832428695745981952 268744 174478 172584 -3232
832428695764195072 269370 174812 172855 -3198
832428695782408192 269704 175008 173034 -3198
832428695800621312 269559 174925 172967 -3200
832428695818834432 268855 174566 172677 -3168
832428695837047552 267945 174110 172285 -3215
832428695855260800 266955 173621 171924 -3178
832428695873473920 266312 173256 171668 -3169
832428695891687040 265856 173048 171422 -3217
832428695909900160 265775 172952 171348 -3219
832428695928113280 266057 173130 171508 -3181
832428695946326400 266423 173293 171624 -3183
832428695964539648 266915 173557 171840 -3153
832428695982752768 267275 173783 172010 -3221
832428696000965888 267506 173969 172101 -3227
832428696019179008 267642 173981 172160 -3241
832428696037392128 267822 174048 172217 -3244
832428696055605248 268062 174127 172301 -3239
832428696073818496 268512 174383 172508 -3249
832428696092031616 269070 174672 172694 -3210
832428696110244736 269493 174890 172914 -3190
832428696128457856 269600 174972 172981 -3167
832428696146670976 269171 174776 172805 -3168
832428696164884224 268436 174350 172515 -3166
832428696183097344 267480 173918 172075 -3223
832428696201310464 266618 173445 171766 -3160
832428696219523584 265923 173073 171454 -3206
832428696237736704 265686 172948 171345 -3172
832428696255949824 265797 173021 171430 -3169
832428696274163072 266176 173205 171529 -3204
832428696292376192 266717 173443 171702 -3229
832428696310589360 267194 173717 171929 -3196
832428696328801536 267497 173864 172114 -3168
832428696347013760 267806 174065 172212 -3218
832428696365226112 268002 174095 172209 -3213
832428696383438336 268236 174180 172400 -3170
832428696401650560 268448 174335 172560 -3211
832428696419862912 268901 174541 172689 -3204
832428696438075136 269320 174809 172834 -3197
832428696456287488 269543 174884 172948 -3160
832428696474499712 269199 174828 172781 -3163
832428696492711936 268529 174431 172503 -3166
832428696510924288 267687 173994 172139 -3205
832428696529136512 266797 173514 171798 -3196
832428696547348736 266227 173175 171546 -3210
832428696565561088 265943 173092 171434 -3222
832428696583773312 265920 173067 171390 -3215
832428696601985536 266167 173198 171486 -3251
832428696620197888 266493 173311 171604 -3234
832428696638410112 266928 173537 171726 -3237
832428696656622464 267301 173742 171999 -3216
832428696674834688 267547 173925 172114 -3182
832428696693046912 267732 173962 172186 -3111
832428696711259264 267922 174089 172278 -3234
832428696729471488 268290 174281 172388 -3203
832428696747683712 268895 174611 172657 -3169
832428696765896064 269393 174873 172823 -3216
832428696784108288 269631 174911 172939 -3249
832428696802320512 269456 174843 172835 -3215
832428696820532864 268724 174478 172558 -3204
832428696838745088 267815 174027 172196 -3227
832428696856957440 266926 173579 171814 -3244
832428696875169664 266226 173173 171493 -3258
832428696893381888 265808 172979 171330 -3225
832428696911594240 265746 172955 171367 -3215
832428696929806464 265948 173035 171389 -3271
832428696948018828 266466 173323 171676 -3220
832428696966232832 266964 173597 171860 -3237
832428696984446848 267292 173714 172002 -3230
832428697002660864 267511 173802 172115 -3232
832428697020874880 267620 173963 172133 -3188
832428697039088896 267792 173939 172184 -3220
832428697057302912 268103 174157 172365 -3193
832428697075516928 268552 174406 172524 -3196
832428697093730944 269064 174671 172707 -3207
832428697111944960 269598 174945 172950 -3152
832428697130158976 269581 174958 173023 -3147
832428697148372992 269132 174698 172767 -3202
832428697166587008 268298 174363 172448 -3218
832428697184801024 267360 173877 171962 -3165
832428697203015040 266399 173323 171616 -3195
832428697221229056 265814 173016 171426 -3225
832428697239443072 265685 172942 171349 -3195
832428697257657088 265908 173044 171431 -3149
832428697275871104 266270 173274 171604 -3165
832428697294085120 266714 173483 171783 -3214
832428697312299136 267091 173689 171887 -3245
832428697330513152 267493 173895 172009 -3230
832428697348727168 267695 173993 172069 -3216
832428697366941184 267854 174044 172162 -3195
832428697385155200 268104 174151 172260 -3223
832428697403369216 268390 174323 172434 -3215
832428697421583232 268859 174581 172651 -3194
832428697439797248 269488 174846 172873 -3168
832428697458011264 269563 174946 172894 -3201
832428697476225280 269275 174735 172732 -3237
832428697494439296 268481 174378 172462 -3169
832428697512653312 267498 173936 172103 -3225
832428697530867328 266746 173474 171743 -3195
832428697549081344 266167 173172 171543 -3236
832428697567295360 265840 173006 171433 -3230
832428697585509332 265859 173015 171380 -3223
832428697603721600 266117 173100 171471 -3235
832428697621933824 266422 173296 171639 -3287
832428697640146176 266959 173565 171847 -3205
832428697658358400 267305 173781 171961 -3196
832428697676570624 267609 173954 172080 -3198
832428697694782976 267678 173981 172137 -3205
832428697712995200 267920 174096 172211 -3237
832428697731207552 268412 174313 172370 -3183
832428697749419776 268799 174593 172625 -3244
832428697767632000 269352 174830 172827 -3240
832428697785844352 269530 174996 172939 -3251
832428697804056576 269264 174922 172832 -3261
832428697822268800 268524 174403 172486 -3286
832428697840481152 267857 174012 172212 -3224
832428697858693376 266950 173588 171858 -3179
832428697876905600 266130 173209 171546 -3157
832428697895117952 265791 173002 171389 -3202
832428697913330176 265760 172972 171426 -3198
832428697931542528 266111 173188 171602 -3184
832428697949754752 266537 173352 171709 -3204
832428697967966976 266976 173569 171942 -3197
832428697986179328 267273 173747 172002 -3228
832428698004391552 267479 173834 172048 -3194
832428698022603776 267616 173918 172084 -3237
832428698040816128 267870 174029 172212 -3186
832428698059028352 268202 174216 172389 -3221
832428698077240576 268701 174449 172580 -3188
832428698095452928 269252 174759 172774 -3180
832428698113665152 269589 174951 172949 -3267
832428698131877504 269630 174912 172997 -3210
832428698150089728 269100 174664 172747 -3190
832428698168301952 268192 174212 172339 -3212
832428698186514304 267196 173711 171955 -3214
832428698204726528 266321 173267 171570 -3236
832428698222938800 265878 172990 171458 -3205
832428698241151232 265703 173000 171343 -3238
832428698259363712 265977 173007 171407 -3210
832428698277576192 266313 173260 171573 -3201
832428698295788672 266759 173525 171775 -3190
832428698314001152 267246 173727 171951 -3218
832428698332213632 267598 173862 172112 -3198
832428698350426112 267711 173982 172156 -3196
832428698368638592 267817 174046 172246 -3183
832428698386851200 268034 174162 172310 -3216
832428698405063680 268348 174312 172390 -3240
832428698423276160 268940 174556 172616 -3203
832428698441488640 269431 174861 172861 -3199
832428698459701120 269550 174993 172926 -3176
832428698477913600 269217 174731 172791 -3178
832428698496126080 268437 174338 172394 -3176
832428698514338560 267567 173884 172119 -3177
832428698532551040 266730 173497 171769 -3230
832428698550763520 266143 173126 171514 -3242
832428698568976000 265734 173026 171317 -3200
832428698587188480 265731 172929 171354 -3217
832428698605400960 266084 173119 171461 -3216
832428698623613440 266551 173436 171666 -3163
832428698641825920 267066 173632 171850 -3200
832428698660038400 267384 173796 171984 -3210
832428698678251008 267593 173923 172150 -3217
832428698696463488 267751 174008 172263 -3168
832428698714675968 268075 174115 172305 -3187
832428698732888448 268445 174329 172438 -3211
832428698751100928 268942 174563 172644 -3229
832428698769313408 269387 174848 172897 -3221
832428698787525888 269438 174842 172865 -3237
832428698805738368 269138 174749 172786 -3234
832428698823950848 268531 174382 172522 -3229
832428698842163328 267707 173992 172223 -3191
832428698860375888 266876 173515 171871 -3176
832428698878586624 266157 173229 171609 -3215
832428698896797312 265768 173000 171385 -3179
832428698915008128 265797 173010 171362 -3189
832428698933218816 266028 173141 171430 -3199
832428698951429632 266491 173367 171655 -3203
832428698969640320 266840 173526 171836 -3256
832428698987851136 267171 173742 171944 -3232
832428699006061824 267424 173803 172080 -3250
832428699024272640 267654 173944 172128 -3240
832428699042483328 267873 174067 172237 -3251
832428699060694016 268231 174254 172416 -3249
832428699078904832 268670 174468 172518 -3233
832428699097115520 269237 174764 172747 -3211
832428699115326336 269607 174973 172937 -3231
832428699133537024 269532 174908 172887 -3212
832428699151747840 268926 174645 172621 -3190
832428699169958528 268046 174125 172255 -3222
832428699188169344 266921 173556 171810 -3257
832428699206380032 266213 173213 171530 -3216
832428699224590720 265753 173018 171377 -3196
832428699242801536 265700 173024 171361 -3151
832428699261012224 265994 173209 171559 -3173
832428699279223040 266469 173350 171670 -3172
832428699297433728 266918 173578 171794 -3195
832428699315644544 267329 173885 172056 -3176
832428699333855232 267617 173955 172147 -3168
832428699352066048 267695 174037 172182 -3257
832428699370276736 267886 174058 172273 -3172
832428699388487424 268134 174204 172339 -3186
832428699406698240 268509 174401 172459 -3228
832428699424908928 269028 174664 172651 -3218
832428699443119744 269548 174933 172926 -3228
832428699461330432 269649 174966 172964 -3197
832428699479541248 269162 174693 172805 -3196
832428699497751950 268442 174313 172462 -3178
832428699515964672 267479 173846 172044 -3193
832428699534177408 266665 173450 171717 -3185
832428699552390144 266026 173146 171485 -3131
832428699570602752 265691 173007 171385 -3146
832428699588815488 265699 172954 171392 -3176
832428699607028224 266169 173186 171583 -3146
832428699625240960 266648 173466 171755 -3174
832428699643453568 267054 173690 171905 -3224
832428699661666304 267466 173866 172095 -3217
832428699679879040 267682 173972 172151 -3184
832428699698091776 267839 174033 172178 -3216
832428699716304384 268100 174203 172344 -3201
832428699734517120 268457 174410 172485 -3180
832428699752729856 268859 174584 172686 -3250
832428699770942592 269264 174875 172854 -3221
832428699789155328 269465 174939 172881 -3185
832428699807367936 269210 174739 172740 -3249
832428699825580672 268632 174498 172556 -3178
832428699843793408 267728 173986 172124 -3197
832428699862006144 266804 173505 171781 -3206
832428699880218752 266195 173230 171532 -3224
832428699898431488 265793 172992 171359 -3268
832428699916644224 265831 173051 171397 -3256
832428699934856960 266124 173289 171566 -3251
832428699953069568 266560 173448 171732 -3196
832428699971282304 266927 173625 171854 -3145
832428699989495040 267277 173783 171997 -3212
832428700007707776 267560 173913 172085 -3213
832428700025920512 267766 174031 172146 -3240
832428700044133120 267970 174080 172270 -3206
832428700062345856 268246 174285 172445 -3202
832428700080558592 268713 174590 172663 -3168
832428700098771328 269268 174829 172839 -3263
832428700116983936 269651 174989 172939 -3180
832428700135196678 269431 174824 172866 -3267
832428700153409792 268775 174505 172588 -3186
832428700171622912 267876 174037 172245 -3221
832428700189836032 267000 173527 171878 -3148
832428700208049280 266205 173169 171538 -3205
832428700226262400 265799 172987 171418 -3227
832428700244475520 265731 172976 171352 -3232
832428700262688640 266030 173124 171456 -3241
832428700280901760 266470 173342 171687 -3228
832428700299114880 266935 173537 171870 -3197
832428700317328128 267319 173725 171980 -3186
832428700335541248 267549 173893 172116 -3205
832428700353754368 267656 173933 172151 -3191
832428700371967488 267733 174012 172222 -3198
832428700390180608 268083 174215 172371 -3150
832428700408393728 268556 174422 172501 -3212
832428700426606976 269199 174779 172744 -3150
832428700444820096 269594 174997 172929 -3166
832428700463033216 269524 174965 172936 -3237
832428700481246336 269164 174796 172768 -3219
832428700499459456 268314 174341 172405 -3216
832428700517672704 267378 173810 172046 -3154
832428700535885824 266502 173350 171682 -3187
832428700554098944 265825 173091 171416 -3234
832428700572312064 265603 172933 171335 -3216
832428700590525184 265793 173050 171386 -3274
832428700608738304 266262 173237 171599 -3196
832428700626951552 266650 173477 171720 -3221
832428700645164672 267130 173731 171949 -3244
832428700663377792 267474 173796 172075 -3251
832428700681590912 267699 173945 172191 -3235
832428700699804032 267873 174032 172277 -3244
832428700718017152 268142 174213 172414 -3171
832428700736230400 268360 174311 172425 -3237
832428700754443520 268799 174490 172557 -3220
832428700772656664 269356 174791 172792 -3183
832428700790868864 269528 174918 172907 -3247
832428700809081088 269251 174734 172780 -3173
832428700827293440 268516 174357 172458 -3228
832428700845505664 267632 173969 172215 -3195
832428700863717888 266763 173487 171830 -3185
832428700881930240 266116 173152 171594 -3215
832428700900142464 265830 173016 171458 -3167
832428700918354816 265809 173052 171380 -3162
832428700936567040 266069 173122 171547 -3185
832428700954779264 266415 173344 171695 -3190
832428700972991616 266869 173600 171843 -3206
832428700991203840 267369 173774 172054 -3181
832428701009416064 267542 173877 172129 -3210
832428701027628416 267761 173948 172184 -3215
832428701045840640 267966 174073 172271 -3163
832428701064052864 268394 174227 172370 -3186
832428701082265216 268819 174563 172665 -3160
832428701100477440 269373 174783 172827 -3185
832428701118689792 269585 174958 172957 -3191
832428701136902016 269359 174825 172904 -3255
832428701155114240 268632 174468 172591 -3199
832428701173326592 267771 174040 172297 -3228
832428701191538816 266952 173593 171878 -3178
832428701209751040 266248 173177 171571 -3185
832428701227963392 265840 173017 171397 -3151
832428701246175616 265807 173062 171412 -3153
832428701264387840 266111 173221 171522 -3189
832428701282600192 266548 173446 171747 -3195
832428701300812416 266996 173673 171942 -3160
832428701319024640 267316 173858 172050 -3221
832428701337236992 267476 173964 172116 -3223
832428701355449216 267513 173970 172085 -3227
832428701373661568 267839 174046 172184 -3238
832428701391873792 268146 174295 172328 -3196
832428701410086124 268701 174494 172589 -3146
832428701428297984 269233 174740 172764 -3186
832428701446509824 269655 175032 172956 -3201
832428701464721664 269641 174949 172937 -3163
832428701482933504 269120 174688 172735 -3204
832428701501145344 268164 174219 172341 -3203
832428701519357184 267202 173768 171928 -3212
832428701537569024 266371 173362 171645 -3179
832428701555780864 265768 173001 171359 -3267
832428701573992704 265626 173002 171310 -3195
832428701592204544 265867 173085 171390 -3211
832428701610416384 266257 173264 171582 -3234
832428701628628224 266740 173502 171785 -3177
832428701646839936 267183 173714 171964 -3198
832428701665051776 267571 173933 172153 -3138
832428701683263616 267716 174003 172172 -3231
832428701701475456 267788 174060 172236 -3202
832428701719687296 268013 174164 172284 -3178
832428701737899136 268405 174305 172396 -3213
832428701756110976 268942 174569 172658 -3216
832428701774322816 269473 174822 172854 -3233
832428701792534656 269521 174927 172912 -3188
832428701810746496 269162 174767 172810 -3181
832428701828958336 268417 174408 172491 -3194
832428701847170176 267517 173835 172116 -3234
832428701865382016 266717 173486 171728 -3218
832428701883593856 266146 173157 171548 -3213
832428701901805696 265799 172939 171358 -3221
832428701920017536 265771 173003 171333 -3257
832428701938229376 266095 173190 171515 -3217
832428701956441216 266578 173420 171707 -3165
832428701974653056 267023 173662 171813 -3229
832428701992864896 267370 173834 172011 -3164
832428702011076736 267613 173912 172078 -3181
832428702029288576 267833 174078 172180 -3205
832428702047500332 268179 174151 172334 -3185
832428702065712768 268515 174371 172486 -3174
832428702083925248 268922 174589 172674 -3182
832428702102137728 269429 174856 172891 -3208
832428702120350208 269558 174911 172933 -3171
832428702138562688 269303 174784 172852 -3167
832428702156775040 268658 174506 172579 -3190
832428702174987520 267694 173994 172169 -3220
832428702193200000 266874 173571 171889 -3182
832428702211412480 266172 173157 171569 -3256
832428702229624960 265871 173030 171480 -3196
832428702247837440 265894 173121 171440 -3217
832428702266049920 266157 173231 171591 -3222
832428702284262400 266568 173430 171718 -3197
832428702302474752 266984 173617 171873 -3208
832428702320687232 267296 173777 171982 -3200
832428702338899712 267414 173843 172083 -3197
832428702357112192 267655 173959 172162 -3181
832428702375324672 267886 174077 172208 -3153
832428702393537152 268236 174194 172386 -3183
832428702411749632 268678 174485 172540 -3199
832428702429962112 269278 174773 172831 -3223
832428702448174464 269721 174985 173007 -3186
832428702466386944 269625 174968 173024 -3180
832428702484599424 269029 174632 172776 -3200
832428702502811904 268108 174198 172399 -3180
832428702521024384 267104 173672 171961 -3163
832428702539236864 266335 173222 171645 -3188
832428702557449344 265843 173024 171438 -3179
832428702575661824 265732 173003 171420 -3138
832428702593874176 265962 173060 171481 -3160
832428702612086656 266388 173370 171728 -3125
832428702630299136 266847 173616 171870 -3115
832428702648511616 267273 173758 171970 -3210
832428702666724096 267558 173897 172110 -3165
832428702684936576 267668 173973 172137 -3177
832428702703149046 267824 174048 172290 -3172
832428702721361536 268029 174125 172273 -3149
832428702739574016 268453 174406 172485 -3223
832428702757786496 269029 174646 172672 -3187
832428702775998976 269562 174979 172952 -3146
832428702794211456 269564 174980 172913 -3142
832428702812423808 269103 174789 172783 -3157
832428702830636288 268402 174359 172457 -3222
832428702848848768 267531 173803 172043 -3196
832428702867061248 266631 173470 171760 -3184
832428702885273728 266021 173150 171507 -3225
832428702903486208 265680 172962 171390 -3160
832428702921698688 265753 173040 171373 -3191
832428702939911168 266141 173198 171481 -3183
832428702958123520 266673 173472 171673 -3159
832428702976336000 267062 173690 171866 -3258
832428702994548480 267399 173850 171995 -3220
832428703012760960 267593 173954 172070 -3182
832428703030973440 267862 174099 172197 -3272
832428703049185920 268122 174212 172333 -3220
832428703067398400 268515 174357 172484 -3157
832428703085610880 268908 174542 172721 -3204
832428703103823232 269363 174832 172912 -3198
832428703122035712 269436 174891 172908 -3176
832428703140248192 269182 174817 172793 -3212
832428703158460672 268534 174450 172549 -3215
832428703176673152 267727 173966 172188 -3173
832428703194885632 266761 173470 171766 -3240
832428703213098112 266073 173139 171490 -3252
832428703231310592 265814 173010 171405 -3196
832428703249522944 265930 173083 171472 -3258
832428703267735424 266094 173195 171520 -3251
832428703285947904 266535 173365 171703 -3223
832428703304160384 266880 173560 171793 -3248
832428703322372864 267229 173753 171902 -3174
832428703340585344 267465 173879 172042 -3184
832428703358797760 267634 174014 172134 -3155
832428703377010176 267959 174105 172247 -3180
832428703395222528 268227 174298 172345 -3228
832428703413434880 268709 174458 172539 -3198
832428703431647232 269376 174853 172853 -3211
832428703449859584 269677 175023 172993 -3185
832428703468071936 269471 174873 172892 -3217
832428703486284288 268823 174590 172694 -3197
832428703504496640 267927 174152 172306 -3185
832428703522708992 266996 173604 171875 -3168
832428703540921344 266291 173272 171586 -3201
832428703559133696 265818 173002 171448 -3183
832428703577346048 265729 172987 171407 -3212
832428703595558528 266038 173102 171563 -3195
832428703613770880 266450 173366 171736 -3143
832428703631983232 266959 173566 171848 -3191
832428703650195584 267379 173776 172000 -3244
832428703668407936 267509 173856 172100 -3230
832428703686620288 267614 173973 172114 -3145
832428703704832640 267691 174022 172175 -3154
832428703723044992 268065 174198 172314 -3171
832428703741257344 268605 174420 172563 -3154
832428703759469696 269103 174693 172746 -3138
832428703777682048 269564 174886 172934 -3178
832428703795894400 269576 174948 172971 -3215
832428703814106752 269174 174709 172798 -3165
832428703832319104 268391 174380 172423 -3214
832428703850531456 267412 173850 172070 -3214
832428703868743808 266569 173426 171717 -3131
832428703886956160 265946 173105 171444 -3159
832428703905168512 265683 172951 171370 -3187
832428703923380864 265795 173050 171396 -3161
832428703941593216 266227 173289 171576 -3198
832428703959805568 266735 173481 171793 -3196
832428703978017920 267072 173646 171949 -3205
832428703996230272 267353 173793 172080 -3213
832428704014443392 267672 173975 172157 -3172
832428704032656512 267885 174065 172246 -3184
832428704050869632 268116 174153 172349 -3147
832428704069082880 268433 174400 172468 -3164
832428704087296000 268791 174542 172621 -3240
832428704105509120 269336 174865 172901 -3132
832428704123722240 269516 174935 172936 -3236
832428704141935360 269224 174756 172786 -3245
832428704160148480 268580 174434 172549 -3187
832428704178361728 267639 173959 172145 -3166
832428704196574848 266799 173513 171805 -3135
832428704214787968 266220 173313 171525 -3167
832428704233001088 265852 173134 171482 -3153
832428704251214208 265841 173086 171433 -3168
832428704269427328 266125 173208 171531 -3176
832428704287640576 266539 173389 171643 -3170
832428704305853696 266937 173590 171832 -3182
832428704324066816 267310 173794 172018 -3156
832428704342279936 267563 173864 172073 -3220
832428704360493056 267702 173959 172157 -3219
832428704378706304 267974 174091 172297 -3180
832428704396919424 268350 174341 172431 -3149
832428704415132544 268865 174571 172625 -3163
832428704433345664 269409 174868 172862 -3170
832428704451558784 269651 174966 172973 -3215
832428704469771904 269404 174915 172902 -3172
832428704487985152 268680 174537 172526 -3205
832428704506198272 267833 174103 172191 -3225
832428704524411392 266968 173613 171773 -3170
832428704542624512 266213 173215 171464 -3235
832428704560837632 265806 172981 171388 -3212
832428704579050752 265720 172929 171342 -3217
832428704597264000 266028 173099 171452 -3161
832428704615477120 266469 173380 171634 -3198
832428704633690258 266955 173582 171833 -3171
832428704651902720 267303 173756 171973 -3215
832428704670115200 267546 173889 172073 -3216
832428704688327808 267565 173955 172073 -3201
832428704706540288 267798 174065 172195 -3193
832428704724752896 268103 174223 172301 -3166
832428704742965376 268608 174468 172511 -3157
832428704761177856 269151 174790 172766 -3143
832428704779390464 269547 174953 172963 -3147
832428704797602944 269580 174886 172969 -3170
832428704815815552 269070 174716 172765 -3212
832428704834028032 268284 174339 172435 -3191
832428704852240512 267287 173778 172008 -3197
832428704870453120 266347 173359 171625 -3162
832428704888665600 265838 173041 171430 -3161
832428704906878208 265709 172887 171324 -3190
832428704925090688 265953 173045 171446 -3181
832428704943303296 266352 173301 171624 -3144
832428704961515776 266810 173562 171804 -3160
832428704979728256 267166 173776 171968 -3216
832428704997940864 267534 173930 172098 -3195
832428705016153344 267712 174009 172211 -3155
832428705034365952 267925 174123 172307 -3130
832428705052578432 268090 174151 172373 -3215
832428705070790912 268402 174348 172485 -3199
832428705089003520 268853 174629 172702 -3177
832428705107216000 269435 174881 172881 -3146
832428705125428608 269544 174967 172915 -3162
832428705143641088 269150 174763 172829 -3163
832428705161853568 268405 174372 172503 -3230
832428705180066176 267530 173957 172168 -3172
832428705198278656 266716 173547 171803 -3169
832428705216491264 266099 173201 171567 -3201
832428705234703744 265836 173053 171413 -3219
832428705252916224 265845 173048 171407 -3177
832428705271128880 266094 173160 171474 -3225
832428705289340032 266485 173360 171614 -3210
832428705307551232 266930 173639 171797 -3216
832428705325762432 267349 173815 172001 -3190
832428705343973632 267577 173876 172094 -3225
832428705362184832 267757 174004 172183 -3245
832428705380396032 267956 174105 172284 -3271
832428705398607232 268362 174340 172452 -3212
832428705416818432 268863 174603 172706 -3167
832428705435029632 269335 174844 172817 -3179
832428705453240704 269555 174928 172872 -3238
832428705471451904 269244 174799 172779 -3177
832428705489663104 268575 174451 172512 -3196
832428705507874304 267774 174028 172152 -3222
832428705526085504 266812 173586 171806 -3222
832428705544296704 266266 173207 171549 -3185
832428705562507904 265774 173001 171397 -3168
832428705580719104 265785 172982 171361 -3122
832428705598930304 266081 173187 171475 -3161
832428705617141504 266499 173346 171703 -3207
832428705635352704 266844 173597 171851 -3234
832428705653563904 267199 173768 172005 -3241
832428705671775104 267341 173805 172039 -3214
832428705689986304 267594 173948 172124 -3153
832428705708197504 267878 174016 172165 -3214
832428705726408704 268234 174171 172405 -3142
832428705744619904 268649 174422 172578 -3199
832428705762831104 269201 174763 172777 -3212
832428705781042176 269674 175024 173032 -3155
832428705799253376 269553 174917 172925 -3223
832428705817464576 269007 174665 172729 -3200
832428705835675776 268126 174252 172299 -3201
832428705853886976 267064 173692 171861 -3234
832428705872098176 266168 173273 171479 -3202
832428705890309376 265775 172984 171301 -3219
832428705908520576 265717 172946 171349 -3169
832428705926731818 265989 173064 171478 -3190
832428705944944896 266415 173264 171658 -3221
832428705963158016 266866 173574 171822 -3230
832428705981371136 267228 173738 171962 -3212
832428705999584384 267507 173930 172044 -3216
832428706017797504 267688 173966 172135 -3224
832428706036010624 267854 174091 172209 -3169
832428706054223744 268070 174229 172305 -3198
832428706072436864 268384 174362 172426 -3223
832428706090649984 268987 174636 172642 -3200
832428706108863232 269507 174897 172870 -3207
832428706127076352 269550 174973 172901 -3218
832428706145289472 269138 174742 172743 -3200
832428706163502592 268448 174330 172464 -3159
832428706181715712 267547 173839 172112 -3172
832428706199928832 266643 173440 171757 -3171
832428706218142080 266026 173164 171526 -3225
832428706236355200 265702 172951 171345 -3212
832428706254568320 265710 172925 171309 -3224
832428706272781440 266058 173118 171433 -3225
832428706290994560 266596 173398 171654 -3254
832428706309207680 267029 173649 171897 -3233
832428706327420928 267407 173826 172056 -3212
832428706345634048 267609 173918 172119 -3237
832428706363847168 267840 174052 172278 -3167
832428706382060288 268134 174177 172329 -3211
832428706400273408 268481 174378 172438 -3180
832428706418486656 268918 174595 172622 -3221
832428706436699776 269458 174920 172875 -3212
832428706454912896 269464 174887 172829 -3253
832428706473126016 269266 174775 172797 -3195
832428706491339136 268563 174457 172533 -3173
832428706509552256 267677 173989 172171 -3167
832428706527765504 266827 173540 171856 -3174
832428706545978624 266157 173172 171558 -3222
832428706564191796 265848 172949 171419 -3203
832428706582404352 265907 173003 171383 -3154
832428706600616960 266163 173172 171543 -3216
832428706618829440 266501 173375 171707 -3181
832428706637042048 266894 173610 171875 -3241
832428706655254528 267167 173744 171965 -3193
832428706673467136 267381 173884 172034 -3248
832428706691679616 267729 173996 172187 -3183
832428706709892224 267972 174079 172254 -3198
832428706728104704 268269 174256 172380 -3249
832428706746317312 268741 174487 172542 -3188
832428706764529792 269376 174842 172831 -3183
832428706782742400 269669 174934 172936 -3282
832428706800954880 269520 174880 172933 -3254
832428706819167488 268892 174611 172679 -3224
832428706837380096 267957 174159 172293 -3275
832428706855592576 266940 173628 171908 -3199
832428706873805184 266194 173226 171553 -3205
832428706892017664 265727 172957 171349 -3184
832428706910230272 265722 172969 171348 -3210
832428706928442752 265984 173093 171468 -3245
832428706946655360 266380 173283 171591 -3271
832428706964867840 266903 173581 171811 -3199
832428706983080448 267305 173775 171958 -3217
832428707001292928 267460 173863 171985 -3190
832428707019505536 267644 173948 172079 -3205
832428707037718016 267747 173994 172171 -3225
832428707055930624 268110 174144 172269 -3201
832428707074143232 268491 174273 172428 -3208
832428707092355712 268997 174661 172734 -3219
832428707110568320 269459 174895 172887 -3182
832428707128780800 269582 174935 172928 -3195
832428707146993408 269081 174664 172663 -3246
832428707165205888 268417 174333 172437 -3219
832428707183418496 267449 173842 172099 -3212
832428707201630976 266579 173428 171790 -3127
832428707219843560 265950 173034 171491 -3168
832428707238056448 265702 172938 171366 -3164
832428707256269312 265842 173035 171419 -3181
832428707274482176 266252 173227 171578 -3151
832428707292695040 266715 173521 171781 -3138
832428707310908032 267193 173716 171984 -3212
832428707329120896 267476 173834 172096 -3199
832428707347333760 267646 173935 172153 -3236
832428707365546624 267804 174086 172201 -3171
832428707383759488 268044 174169 172334 -3193
832428707401972352 268361 174364 172450 -3221
832428707420185216 268875 174559 172601 -3213
832428707438398080 269360 174848 172833 -3223
832428707456611072 269479 174929 172894 -3213
832428707474823936 269250 174814 172828 -3176
832428707493036800 268620 174424 172448 -3174
832428707511249664 267676 174004 172111 -3163
832428707529462528 266796 173559 171827 -3171
832428707547675392 266213 173266 171559 -3183
832428707565888256 265888 173102 171450 -3154
832428707584101248 265942 173110 171433 -3174
832428707602314112 266172 173164 171493 -3227
832428707620526976 266529 173378 171679 -3218
832428707638739840 266888 173543 171829 -3202
832428707656952704 267338 173787 172024 -3108
832428707675165568 267516 173924 172062 -3178
832428707693378432 267766 173983 172200 -3147
832428707711591296 267964 174094 172228 -3168
832428707729804288 268316 174237 172446 -3165
832428707748017152 268897 174525 172662 -3183
832428707766230016 269424 174903 172926 -3200
832428707784442880 269694 174964 172968 -3229
832428707802655744 269441 174902 172980 -3178
832428707820868608 268746 174533 172617 -3184
832428707839081472 267860 174098 172239 -3195
832428707857294392 266938 173651 171909 -3218
832428707875506432 266221 173232 171585 -3142
832428707893718528 265827 173072 171439 -3174
832428707911930624 265775 172949 171375 -3221
832428707930142720 266039 173107 171456 -3237
832428707948354816 266611 173392 171652 -3163
832428707966566912 266988 173600 171907 -3190
832428707984779008 267310 173803 172003 -3133
832428708002991104 267435 173869 172078 -3251
832428708021203200 267591 173953 172167 -3215
832428708039415296 267805 174034 172196 -3167
832428708057627392 268132 174149 172318 -3184
832428708075839488 268543 174432 172501 -3211
832428708094051584 269116 174673 172712 -3308
832428708112263680 269579 174862 172936 -3208
832428708130475776 269527 174885 172920 -3230
832428708148687872 269119 174678 172701 -3205
832428708166899968 268258 174278 172390 -3190
832428708185112064 267255 173752 171997 -3255
832428708203324160 266402 173334 171646 -3189
832428708221536256 265808 172975 171412 -3194
832428708239748352 265565 172889 171273 -3196
832428708257960448 265811 173008 171353 -3196
832428708276172544 266234 173246 171557 -3208
832428708294384640 266734 173492 171792 -3203
832428708312596736 267178 173694 171925 -3212
832428708330808832 267479 173806 172034 -3178
832428708349020928 267740 173977 172149 -3213
832428708367233024 267843 174088 172195 -3164
832428708385445120 268082 174164 172280 -3186
832428708403657216 268418 174356 172361 -3213
832428708421869312 268791 174562 172565 -3193
832428708440081408 269353 174832 172856 -3244
832428708458293504 269539 174891 172926 -3203
832428708476505600 269216 174711 172776 -3216
832428708494717756 268475 174369 172437 -3206
832428708512930176 267476 173838 172044 -3256
832428708531142656 266777 173474 171737 -3285
832428708549355008 266123 173198 171496 -3290
832428708567567488 265784 173018 171317 -3240
832428708585779968 265825 173000 171384 -3238
832428708603992448 266055 173188 171470 -3208
832428708622204800 266436 173382 171659 -3179
832428708640417280 266910 173612 171836 -3189
832428708658629760 267293 173767 171939 -3168
832428708676842240 267540 173919 172078 -3190
832428708695054592 267653 173948 172119 -3220
832428708713267072 267927 174085 172224 -3224
832428708731479552 268413 174364 172463 -3184
832428708749691904 268863 174584 172625 -3246
832428708767904384 269406 174878 172772 -3228
832428708786116864 269601 174982 172917 -3204
832428708804329344 269315 174796 172771 -3215
832428708822541696 268679 174472 172533 -3241
832428708840754176 267797 173998 172177 -3222
832428708858966656 266874 173499 171837 -3265
832428708877179008 266233 173181 171554 -3190
832428708895391488 265857 172970 171331 -3220
832428708913603968 265816 173049 171385 -3202
832428708931816448 266124 173214 171530 -3200
832428708950028800 266539 173380 171687 -3157
832428708968241280 266883 173595 171845 -3205
832428708986453760 267243 173744 172008 -3186
832428709004666240 267449 173842 172093 -3189
832428709022878592 267594 173973 172144 -3257
832428709041091072 267807 174059 172127 -3247
832428709059303552 268158 174212 172273 -3229
832428709077515904 268593 174487 172528 -3167
832428709095728384 269204 174686 172752 -3177
832428709113940864 269606 174966 172964 -3161
832428709132153320 269509 174901 172905 -3255
832428709150365568 269034 174702 172694 -3216
832428709168577792 268059 174162 172289 -3238
832428709186790144 267092 173680 171901 -3210
832428709205002368 266318 173269 171602 -3163
832428709223214592 265753 172951 171364 -3195
832428709241426944 265636 172941 171334 -3218
832428709259639168 265891 173027 171423 -3149
832428709277851520 266251 173232 171570 -3262
832428709296063744 266765 173497 171774 -3196
832428709314275968 267225 173708 171957 -3207
832428709332488320 267530 173859 172082 -3216
832428709350700544 267670 173935 172118 -3204
832428709368912768 267772 173986 172148 -3216
832428709387125120 268001 174079 172233 -3242
832428709405337344 268242 174323 172404 -3253
832428709423549568 268910 174663 172632 -3235
832428709441761920 269454 174858 172878 -3237
832428709459974144 269548 174951 172870 -3239
832428709478186496 269140 174773 172771 -3239
832428709496398720 268424 174342 172410 -3220
832428709514610944 267594 173920 172069 -3227
832428709532823296 266776 173509 171770 -3210
832428709551035520 266123 173181 171451 -3199
832428709569247744 265784 172999 171380 -3186
832428709587460096 265819 173036 171384 -3225
832428709605672320 266032 173103 171466 -3247
832428709623884544 266656 173368 171714 -3174
832428709642096896 267016 173607 171855 -3182
832428709660309120 267367 173781 172041 -3233
832428709678521472 267686 173949 172097 -3225
832428709696733696 267780 174016 172175 -3169
832428709714945920 268064 174199 172280 -3165
832428709733158272 268435 174317 172442 -3159
832428709751370496 268929 174529 172636 -3180
832428709769582788 269339 174779 172806 -3202
832428709787795968 269489 174903 172918 -3211
832428709806009088 269288 174757 172797 -3218
832428709824222208 268599 174412 172469 -3212
832428709842435456 267695 173924 172097 -3208
832428709860648576 266819 173531 171766 -3190
832428709878861696 266124 173298 171510 -3162
832428709897074816 265720 172983 171362 -3265
832428709915287936 265845 173009 171450 -3253
832428709933501056 266128 173125 171516 -3220
832428709951714304 266534 173372 171669 -3224
832428709969927424 266840 173628 171791 -3249
832428709988140544 267183 173748 171965 -3172
832428710006353664 267390 173877 171985 -3255
832428710024566784 267630 173945 172105 -3245
832428710042779904 267872 174094 172190 -3254
832428710060993152 268257 174256 172331 -3244
832428710079206272 268638 174409 172499 -3245
832428710097419392 269215 174766 172754 -3204
832428710115632512 269639 174967 172930 -3185
832428710133845632 269504 174858 172858 -3199
832428710152058880 268958 174584 172704 -3168
832428710170272000 267963 174110 172267 -3215
832428710188485120 266922 173583 171817 -3213
832428710206698240 266166 173156 171520 -3221
832428710224911360 265731 172918 171297 -3220
832428710243124480 265665 172952 171335 -3221
832428710261337728 265917 173047 171362 -3206
832428710279550848 266335 173253 171584 -3233
832428710297763968 266876 173504 171812 -3230
832428710315977088 267277 173777 171950 -3187
832428710334190208 267530 173855 172076 -3177
832428710352403328 267617 173991 172109 -3230
832428710370616576 267715 174031 172160 -3217
832428710388829696 267940 174132 172255 -3242
832428710407042816 268389 174346 172425 -3222
832428710425255916 269016 174656 172713 -3193
832428710443468032 269435 174891 172835 -3266
832428710461680128 269515 174936 172934 -3244
832428710479892096 269052 174676 172717 -3241
832428710498104192 268339 174276 172421 -3207
832428710516316288 267422 173801 172066 -3262
832428710534528256 266544 173379 171720 -3203
832428710552740352 265966 173083 171446 -3237
832428710570952448 265637 172934 171371 -3170
832428710589164416 265734 172958 171336 -3172
832428710607376512 266121 173207 171540 -3179
832428710625588608 266635 173510 171747 -3182
832428710643800576 267130 173725 171909 -3218
832428710662012672 267389 173840 172022 -3137
832428710680224768 267522 173887 172059 -3198
832428710698436736 267796 174001 172214 -3190
832428710716648832 268094 174168 172293 -3161
832428710734860928 268405 174317 172387 -3196
832428710753072896 268846 174533 172530 -3279
832428710771284992 269290 174802 172718 -3181
832428710789497088 269475 174900 172803 -3217
832428710807709056 269237 174769 172779 -3169
832428710825921152 268552 174402 172468 -3201
832428710844133248 267630 173940 172078 -3225
832428710862345216 266799 173501 171753 -3166
832428710880557312 266146 173158 171499 -3191
832428710898769408 265752 172985 171369 -3191
832428710916981376 265800 172979 171428 -3164
832428710935193472 266155 173161 171529 -3185
832428710953405440 266448 173315 171672 -3225
832428710971617536 266802 173530 171790 -3157
832428710989829632 267221 173717 171922 -3198
832428711008041600 267435 173782 172021 -3215
832428711026253696 267698 173954 172148 -3222
832428711044465792 267870 174089 172253 -3222
832428711062677754 268195 174254 172335 -3181
832428711080890240 268708 174443 172529 -3240
832428711099102720 269359 174799 172799 -3224
832428711117315200 269683 174943 172918 -3206
832428711135527680 269489 174944 172849 -3240
832428711153740160 268788 174594 172609 -3245
832428711171952640 267845 174014 172207 -3286
832428711190165120 266882 173528 171780 -3292
832428711208377600 266185 173127 171496 -3262
832428711226590208 265789 172928 171350 -3234
832428711244802688 265694 172929 171294 -3259
832428711263015168 265958 173044 171386 -3244
832428711281227648 266421 173258 171564 -3234
832428711299440128 266871 173475 171720 -3235
832428711317652608 267223 173684 171922 -3210
832428711335865088 267441 173818 172070 -3234
832428711354077568 267575 173890 172102 -3276
832428711372290048 267670 173930 172149 -3249
832428711390502528 267967 174082 172277 -3212
832428711408715008 268565 174391 172512 -3206
832428711426927488 269115 174681 172736 -3210
832428711445139968 269520 174875 172947 -3207
832428711463352448 269549 174866 172950 -3240
832428711481564928 269061 174641 172698 -3253
832428711499777536 268276 174214 172273 -3213
832428711517990016 267360 173839 172011 -3176
832428711536202496 266436 173366 171709 -3198
832428711554414976 265851 173043 171463 -3215
832428711572627456 265608 172836 171325 -3252
832428711590839936 265787 172922 171353 -3204
832428711609052416 266186 173190 171594 -3227
832428711627264896 266640 173381 171744 -3203
832428711645477376 267132 173679 171887 -3184
832428711663689856 267473 173895 172052 -3170
832428711681902336 267643 173940 172120 -3203
832428711700114852 267828 174040 172230 -3163
832428711718326656 268047 174203 172334 -3165
832428711736538496 268421 174329 172440 -3166
832428711754750336 268811 174507 172645 -3245
832428711772962176 269337 174760 172818 -3235
832428711791174016 269555 174899 172894 -3202
832428711809385856 269197 174749 172758 -3247
832428711827597696 268490 174410 172498 -3203
832428711845809536 267552 173880 172064 -3257
832428711864021376 266694 173468 171706 -3193
832428711882233216 266130 173161 171490 -3217
832428711900445056 265831 173014 171354 -3191
832428711918656896 265891 172985 171404 -3151
832428711936868608 266046 173186 171469 -3236
832428711955080448 266530 173350 171652 -3256
832428711973292288 266916 173581 171833 -3170
832428711991504128 267313 173846 172005 -3186
832428712009715968 267594 173943 172144 -3206
832428712027927808 267716 173978 172197 -3255
832428712046139648 267938 174073 172228 -3233
832428712064351488 268387 174284 172412 -3173
832428712082563328 268834 174538 172669 -3193
832428712100775168 269393 174850 172870 -3188
832428712118987008 269592 174976 172954 -3173
832428712137198848 269344 174841 172834 -3240
832428712155410688 268603 174420 172504 -3244
832428712173622528 267752 173994 172161 -3228
832428712191834368 266872 173527 171808 -3253
832428712210046208 266198 173169 171503 -3211
832428712228258048 265773 172957 171403 -3234
832428712246469888 265731 172953 171379 -3202
832428712264681728 266007 173134 171512 -3211
832428712282893568 266517 173289 171658 -3230
832428712301105408 266908 173556 171827 -3230
832428712319317248 267210 173739 171981 -3269
832428712337529050 267398 173827 172048 -3239
832428712355741312 267523 173877 172066 -3179
832428712373953536 267737 173995 172145 -3206
832428712392165888 268101 174162 172292 -3242
832428712410378112 268561 174400 172467 -3236
832428712428590336 269060 174657 172707 -3228
832428712446802688 269516 174891 172908 -3230
832428712465014912 269526 174910 172885 -3216
832428712483227264 269008 174634 172761 -3168
832428712501439488 268157 174239 172412 -3171
832428712519651712 267134 173703 171973 -3142
832428712537864064 266279 173299 171619 -3247
832428712556076288 265768 172974 171336 -3257
832428712574288512 265674 172941 171302 -3255
832428712592500864 265852 173066 171384 -3258
832428712610713088 266306 173279 171606 -3207
832428712628925312 266726 173460 171714 -3237
832428712647137664 267080 173640 171863 -3270
832428712665349888 267451 173834 172058 -3198
832428712683562240 267593 173964 172118 -3247
832428712701774464 267774 174056 172200 -3206
832428712719986688 268006 174143 172247 -3215
832428712738199040 268260 174281 172404 -3190
832428712756411264 268853 174518 172581 -3223
832428712774623488 269358 174847 172833 -3231
832428712792835840 269508 174898 172882 -3163
832428712811048064 269079 174696 172721 -3246
832428712829260288 268430 174362 172458 -3204
832428712847472640 267444 173852 172081 -3269
832428712865684864 266616 173421 171710 -3287
832428712883897216 266061 173087 171471 -3249
832428712902109440 265695 172902 171326 -3207
832428712920321664 265843 173023 171349 -3155
832428712938534016 266093 173148 171500 -3233
832428712956746240 266558 173339 171680 -3177
832428712974958520 266980 173530 171842 -3190
832428712993171200 267311 173758 172010 -3181
832428713011383936 267621 173854 172099 -3199
832428713029596672 267764 173971 172214 -3207
832428713047809280 268052 174135 172239 -3202
832428713066022016 268389 174300 172420 -3204
832428713084234752 268853 174533 172627 -3208
832428713102447488 269404 174848 172899 -3134
832428713120660096 269492 174867 172854 -3186
832428713138872832 269182 174754 172700 -3208
832428713157085568 268580 174399 172443 -3186
832428713175298304 267684 173941 172087 -3190
832428713193510912 266853 173481 171773 -3219
832428713211723648 266197 173167 171541 -3183
832428713229936384 265795 172930 171362 -3248
832428713248149120 265801 172982 171355 -3207
832428713266361856 265988 173129 171450 -3236
832428713284574464 266389 173337 171598 -3261
832428713302787200 266938 173638 171800 -3237
832428713320999936 267107 173762 171905 -3245
832428713339212672 267397 173801 172037 -3191
832428713357425280 267507 173833 172037 -3266
832428713375638016 267818 174025 172187 -3266
832428713393850752 268165 174136 172264 -3283
832428713412063488 268659 174350 172433 -3204
832428713430276096 269157 174727 172706 -3248
832428713448488832 269581 174881 172901 -3231
832428713466701568 269444 174829 172844 -3227
832428713484914304 268873 174553 172599 -3233
832428713503127040 268030 174098 172257 -3238
832428713521339648 266977 173518 171851 -3234
832428713539552384 266215 173191 171564 -3191
832428713557765120 265714 172934 171268 -3268
832428713575977856 265723 172948 171342 -3166
832428713594190464 265933 173032 171417 -3199
832428713612403248 266308 173232 171537 -3227
832428713630615424 266750 173568 171790 -3235
832428713648827648 267229 173710 171930 -3215
832428713667039872 267516 173857 172055 -3202
832428713685252224 267637 173889 172068 -3225
832428713703464448 267771 173933 172111 -3205
832428713721676672 267971 174090 172232 -3217
832428713739888896 268401 174311 172435 -3160
832428713758101248 268935 174644 172615 -3189
832428713776313472 269444 174849 172848 -3216
832428713794525696 269564 174934 172881 -3236
832428713812737920 269128 174679 172707 -3210
832428713830950144 268436 174332 172431 -3212
832428713849162496 267475 173868 172069 -3237
832428713867374720 266637 173368 171717 -3217
832428713885586944 266004 173045 171416 -3248
832428713903799168 265635 172895 171332 -3234
832428713922011520 265711 172975 171360 -3198
832428713940223744 266046 173054 171418 -3231
832428713958435968 266552 173366 171692 -3195
832428713976648192 267011 173567 171800 -3240
832428713994860416 267346 173738 172015 -3219
832428714013072768 267550 173897 172107 -3203
832428714031284992 267856 174082 172242 -3207
832428714049497216 268032 174227 172304 -3208
832428714067709440 268354 174301 172444 -3213
832428714085921792 268823 174555 172682 -3186
832428714104134016 269285 174814 172799 -3210
832428714122346240 269429 174837 172882 -3227
832428714140558464 269224 174760 172770 -3202
832428714158770688 268493 174385 172531 -3256
832428714176983040 267706 173946 172177 -3257
832428714195195264 266736 173487 171753 -3244
832428714213407488 266121 173150 171505 -3189
832428714231619712 265819 172975 171341 -3245
832428714249832064 265842 173007 171387 -3207
832428714268044332 266077 173124 171526 -3233
832428714286257280 266438 173366 171609 -3233
832428714304470272 266820 173564 171737 -3242
832428714322683264 267211 173684 171936 -3207
832428714340896256 267417 173754 171969 -3255
832428714359109376 267569 173872 172036 -3273
832428714377322368 267908 174051 172164 -3249
832428714395535360 268294 174276 172366 -3197
832428714413748352 268745 174488 172545 -3251
832428714431961344 269319 174789 172777 -3237
832428714450174336 269636 175014 172966 -3267
832428714468387456 269446 174847 172841 -3232
832428714486600448 268810 174553 172612 -3256
832428714504813440 267833 174018 172223 -3228
832428714523026432 266904 173540 171832 -3219
832428714541239424 266184 173100 171436 -3254
832428714559452416 265709 172972 171311 -3230
832428714577665408 265590 172928 171259 -3244
832428714595878528 265950 173084 171438 -3221
832428714614091520 266376 173207 171601 -3251
832428714632304512 266904 173516 171789 -3235
832428714650517504 267297 173720 171979 -3230
832428714668730496 267484 173802 172046 -3254
832428714686943488 267588 173898 172060 -3231
832428714705156608 267677 173972 172169 -3208
832428714723369600 268012 174134 172238 -3211
832428714741582592 268436 174390 172486 -3216
832428714759795584 268935 174581 172717 -3211
832428714778008576 269475 174846 172948 -3231
832428714796221568 269530 174839 172890 -3225
832428714814434560 269168 174676 172742 -3239
832428714832647680 268404 174311 172411 -3206
832428714850860672 267361 173752 172018 -3202
832428714869073664 266449 173334 171646 -3216
832428714887286656 265773 173013 171349 -3262
832428714905499734 265518 172839 171249 -3207
832428714923713152 265714 172998 171353 -3235
832428714941926528 266171 173209 171514 -3250
832428714960139776 266596 173466 171719 -3186
832428714978353152 267096 173671 171878 -3255
832428714996566400 267350 173809 171999 -3268
832428715014779776 267730 173964 172152 -3157
832428715032993024 267840 174039 172192 -3245
832428715051206400 268064 174201 172259 -3216
832428715069419648 268395 174293 172374 -3227
832428715087633024 268809 174525 172587 -3206
832428715105846272 269323 174732 172726 -3288
832428715124059648 269514 174907 172845 -3245
832428715142272896 269136 174706 172733 -3271
832428715160486272 268459 174426 172473 -3263
832428715178699648 267537 173919 172113 -3262
832428715196912896 266681 173464 171720 -3229
832428715215126272 266118 173167 171513 -3205
832428715233339520 265758 172949 171358 -3231
832428715251552896 265806 173011 171433 -3203
832428715269766144 266065 173186 171473 -3234
832428715287979520 266388 173369 171612 -3273
832428715306192768 266896 173564 171764 -3248
832428715324406144 267201 173698 171934 -3242
832428715342619392 267501 173869 171978 -3233
832428715360832768 267591 173918 172069 -3236
832428715379046016 267840 174067 172226 -3233
832428715397259392 268309 174222 172371 -3195
832428715415472768 268800 174560 172579 -3207
832428715433686016 269444 174823 172816 -3207
832428715451899392 269576 174928 172881 -3219
832428715470112640 269256 174810 172759 -3255
832428715488326016 268541 174406 172501 -3236
832428715506539264 267708 173977 172198 -3231
832428715524752640 266800 173472 171791 -3230
832428715542965822 266159 173177 171549 -3202
832428715561178880 265643 172938 171327 -3238
832428715579392000 265604 172891 171293 -3225
832428715597605120 266002 172998 171472 -3244
832428715615818368 266480 173318 171617 -3242
832428715634031488 266871 173533 171746 -3283
832428715652244608 267159 173707 171941 -3224
832428715670457728 267389 173785 172020 -3228
832428715688670848 267525 173798 172032 -3225
832428715706883968 267749 173995 172106 -3241
832428715725097216 268106 174157 172271 -3232
832428715743310336 268549 174373 172465 -3189
832428715761523456 269022 174645 172726 -3240
832428715779736576 269423 174840 172881 -3208
832428715797949696 269505 174910 172837 -3225
832428715816162816 268973 174652 172672 -3186
832428715834376064 268152 174185 172351 -3264
832428715852589184 267110 173699 171934 -3208
832428715870802304 266282 173329 171565 -3242
832428715889015424 265639 172943 171317 -3213
832428715907228544 265512 172843 171212 -3313
832428715925441792 265822 172959 171365 -3220
832428715943654912 266129 173117 171447 -3324
832428715961868032 266677 173423 171746 -3219
832428715980081152 267131 173681 171883 -3244
832428715998294272 267482 173849 171998 -3218
832428716016507392 267730 173938 172118 -3193
832428716034720640 267799 174000 172167 -3183
832428716052933760 267920 174125 172239 -3210
832428716071146880 268300 174274 172411 -3207
832428716089360000 268804 174534 172571 -3229
832428716107573120 269337 174766 172805 -3233
832428716125786240 269462 174866 172798 -3233
832428716143999488 269123 174706 172666 -3182
832428716162212608 268425 174355 172469 -3171
832428716180425728 267517 173898 172056 -3202
832428716198638950 266672 173427 171721 -3270
832428716216852992 266154 173143 171515 -3171
832428716235067008 265704 172930 171399 -3249
832428716253281024 265726 172947 171377 -3223
832428716271495040 266002 173145 171453 -3250
832428716289709056 266456 173382 171631 -3219
832428716307923072 266983 173596 171864 -3197
832428716326137088 267333 173765 171995 -3212
832428716344351104 267527 173853 172007 -3233
832428716362565120 267693 173964 172096 -3233
832428716380779136 267950 174032 172215 -3207
832428716398993152 268378 174293 172422 -3195
832428716417207168 268824 174484 172562 -3264
832428716435421184 269290 174734 172760 -3247
832428716453635200 269402 174810 172826 -3264
832428716471849216 269145 174638 172651 -3269
832428716490063232 268521 174358 172427 -3273
832428716508277248 267679 173977 172116 -3245
832428716526491264 266842 173532 171789 -3227
832428716544705280 266117 173102 171440 -3254
832428716562919296 265782 172993 171378 -3220
832428716581133312 265813 172965 171383 -3178
832428716599347328 266121 173130 171531 -3208
832428716617561344 266503 173351 171621 -3213
832428716635775360 266888 173555 171754 -3224
832428716653989376 267188 173667 171865 -3251
832428716672203392 267329 173738 171932 -3204
832428716690417408 267557 173889 172064 -3197
832428716708631424 267815 174028 172141 -3216
832428716726845440 268116 174199 172273 -3258
832428716745059456 268624 174388 172520 -3199
832428716763273472 269182 174767 172706 -3211
832428716781487488 269600 174936 172920 -3217
832428716799701504 269588 174887 172957 -3233
832428716817915520 268944 174614 172627 -3244
832428716836129454 268038 174148 172288 -3211
832428716854343296 266963 173596 171823 -3282
832428716872557184 266141 173179 171479 -3271
832428716890771072 265802 172945 171354 -3255
832428716908984960 265715 172850 171273 -3230
832428716927198848 265978 173088 171427 -3193
832428716945412736 266286 173295 171609 -3216
832428716963626624 266718 173436 171726 -3179
832428716981840512 267190 173707 171982 -3204
832428717000054400 267459 173813 172013 -3282
832428717018268288 267698 173998 172153 -3220
832428717036482176 267729 174022 172150 -3206
832428717054696064 267885 174029 172216 -3222
832428717072909952 268309 174267 172358 -3238
832428717091123840 268885 174637 172673 -3219
832428717109337600 269383 174816 172781 -3210
832428717127551488 269496 174881 172844 -3180
832428717145765376 269084 174656 172690 -3210
832428717163979264 268300 174219 172336 -3234
832428717182193152 267424 173860 172004 -3191
832428717200407040 266619 173372 171763 -3251
832428717218620928 265892 173088 171432 -3269
832428717236834816 265656 172898 171349 -3248
832428717255048704 265691 172943 171346 -3246
832428717273262592 266046 173112 171480 -3294
832428717291476480 266588 173395 171643 -3180
832428717309690368 266995 173646 171826 -3247
832428717327904256 267310 173798 171999 -3251
832428717346118144 267775 173956 172151 -3207
832428717364332032 267824 173964 172120 -3222
832428717382545920 268068 174105 172317 -3228
832428717400759808 268468 174341 172484 -3183
832428717418973696 268958 174524 172635 -3188
832428717437187584 269287 174757 172721 -3246
832428717455401472 269476 174816 172847 -3235
832428717473615374 269144 174698 172694 -3250
832428717491828608 268556 174382 172528 -3216
832428717510041856 267702 173978 172126 -3168
832428717528255104 266797 173553 171728 -3164
832428717546468480 266076 173212 171473 -3170
832428717564681728 265884 172996 171334 -3233
832428717582894976 265938 173004 171440 -3212
832428717601108224 266029 173148 171466 -3191
832428717619321472 266451 173311 171634 -3212
832428717637534720 266959 173564 171802 -3202
832428717655748096 267075 173671 171866 -3237
832428717673961344 267374 173836 171983 -3219
832428717692174592 267600 173943 172155 -3231
832428717710387840 267930 174106 172213 -3233
832428717728601088 268288 174239 172388 -3230
832428717746814336 268640 174494 172537 -3267
832428717765027712 269183 174803 172752 -3270
832428717783240960 269539 174961 172946 -3215
832428717801454208 269438 174860 172852 -3196
832428717819667456 268741 174591 172588 -3265
832428717837880704 267874 174149 172203 -3191
832428717856093952 266877 173540 171806 -3264
832428717874307328 266216 173178 171548 -3211
832428717892520576 265761 172980 171369 -3255
832428717910733824 265721 172895 171290 -3193
832428717928947072 266014 173020 171422 -3223
832428717947160320 266434 173282 171591 -3170
832428717965373568 266914 173574 171841 -3218
832428717983586944 267188 173713 171893 -3282
832428718001800192 267500 173779 172041 -3261
832428718020013440 267600 173887 172092 -3276
832428718038226688 267687 173944 172121 -3292
832428718056439936 268046 174102 172259 -3224
832428718074653184 268490 174374 172440 -3250
832428718092866560 268957 174577 172625 -3294
832428718111079808 269537 174897 172878 -3247
832428718129293078 269547 174918 172918 -3255
832428718147506176 269101 174649 172694 -3187
832428718165719296 268364 174242 172391 -3238
832428718183932416 267378 173824 172062 -3213
832428718202145664 266492 173324 171651 -3160
832428718220358784 265872 172985 171378 -3203
832428718238571904 265566 172849 171249 -3240
832428718256785024 265718 172965 171336 -3255
832428718274998144 266169 173237 171508 -3235
832428718293211264 266740 173478 171738 -3262
832428718311424512 267066 173621 171864 -3249
832428718329637632 267323 173802 172037 -3208
832428718347850752 267627 173891 172084 -3215
832428718366063872 267810 173990 172183 -3179
832428718384276992 268049 174059 172273 -3157
832428718402490112 268351 174282 172419 -3220
832428718420703360 268786 174466 172650 -3232
832428718438916480 269278 174731 172802 -3173
832428718457129600 269457 174832 172816 -3227
832428718475342720 269206 174756 172762 -3251
832428718493555840 268524 174410 172474 -3204
832428718511769088 267625 173936 172138 -3228
832428718529982208 266770 173487 171789 -3275
832428718548195328 266146 173207 171536 -3255
832428718566408448 265790 173010 171399 -3231
832428718584621568 265878 173040 171445 -3190
832428718602834688 266136 173123 171503 -3193
832428718621047936 266427 173259 171600 -3182
832428718639261056 266891 173502 171786 -3172
832428718657474176 267234 173685 171911 -3210
832428718675687296 267513 173857 172070 -3229
832428718693900416 267650 173919 172145 -3222
832428718712113536 267899 174116 172269 -3183
832428718730326784 268269 174261 172433 -3241
832428718748539904 268798 174524 172587 -3272
832428718766753064 269390 174877 172824 -3247
832428718784964992 269625 174972 172935 -3224
832428718803176960 269387 174880 172823 -3187
832428718821389056 268736 174464 172521 -3232
832428718839601024 267837 174030 172216 -3229
832428718857812992 266929 173559 171810 -3210
832428718876025088 266250 173236 171536 -3291
832428718894237056 265792 173026 171383 -3228
832428718912449024 265739 172960 171395 -3267
832428718930661120 266031 173148 171519 -3267
832428718948873088 266445 173276 171637 -3234
832428718967085056 266889 173525 171806 -3255
832428718985297152 267250 173782 171994 -3241
832428719003509120 267414 173796 171981 -3231
832428719021721088 267549 173846 172043 -3223
832428719039933056 267701 173980 172067 -3273
832428719058145152 268086 174114 172253 -3223
832428719076357120 268504 174378 172477 -3232
832428719094569088 269147 174642 172701 -3179
832428719112781184 269525 174907 172854 -3265
832428719130993152 269568 174899 172890 -3196
832428719149205120 269055 174658 172734 -3237
832428719167417216 268208 174270 172353 -3214
832428719185629184 267174 173743 171925 -3217
832428719203841152 266324 173300 171625 -3177
832428719222053248 265715 172974 171351 -3179
832428719240265216 265574 172905 171338 -3165
832428719258477184 265817 172964 171365 -3219
832428719276689280 266213 173209 171589 -3244
832428719294901248 266721 173428 171825 -3216
832428719313113216 267120 173663 171889 -3280
832428719331325312 267532 173837 172060 -3248
832428719349537280 267681 173933 172115 -3271
832428719367749248 267797 174015 172197 -3233
832428719385961344 267939 174139 172243 -3279
832428719404173376 268321 174288 172428 -3256
832428719422384128 268781 174556 172622 -3261
832428719440594944 269405 174858 172880 -3265
832428719458805888 269483 174919 172929 -3254
832428719477016704 269150 174765 172754 -3219
832428719495227648 268462 174385 172425 -3265
832428719513438464 267581 173918 172143 -3210
832428719531649408 266750 173452 171815 -3198
832428719549860224 266111 173129 171509 -3252
832428719568071168 265817 173003 171375 -3189
832428719586281984 265804 172977 171363 -3206
832428719604492928 266126 173121 171489 -3204
832428719622703744 266505 173256 171624 -3207
832428719640914688 266918 173543 171795 -3204
832428719659125504 267303 173719 171939 -3204
832428719677336320 267522 173833 172068 -3180
832428719695547264 267770 173982 172178 -3249
832428719713758080 268006 174140 172259 -3201
832428719731969024 268372 174312 172438 -3240
832428719750179840 268794 174579 172581 -3248
832428719768390784 269386 174813 172823 -3240
832428719786601600 269478 174902 172885 -3233
832428719804812544 269237 174796 172766 -3227
832428719823023360 268546 174508 172444 -3248
832428719841234304 267762 174003 172133 -3216
832428719859445120 266911 173586 171855 -3202
832428719877656064 266210 173162 171549 -3202
832428719895866880 265816 173022 171385 -3250
832428719914077696 265796 172975 171385 -3191
832428719932288640 266062 173095 171501 -3289
832428719950499456 266414 173278 171657 -3233
832428719968710400 266826 173511 171720 -3234
832428719986921216 267166 173714 171983 -3195
832428720005132160 267424 173806 172030 -3210
832428720023342976 267606 173892 172136 -3210
832428720041554006 267774 174044 172156 -3268
832428720059765632 268167 174242 172328 -3234
832428720077977216 268606 174490 172510 -3204
832428720096188928 269132 174725 172770 -3212
832428720114400512 269621 174934 172921 -3238
832428720132612096 269548 174888 172919 -3210
832428720150823680 268956 174614 172669 -3172
832428720169035392 268070 174189 172311 -3220
832428720187246976 267097 173674 171860 -3238
832428720205458560 266235 173197 171523 -3206
832428720223670144 265751 172888 171352 -3217
832428720241881856 265667 172903 171335 -3240
832428720260093440 265929 173072 171433 -3204
832428720278305024 266288 173253 171540 -3242
832428720296516608 266796 173581 171771 -3221
832428720314728320 267196 173745 171959 -3274
832428720332939904 267498 173845 172066 -3275
832428720351151488 267634 173965 172158 -3240
832428720369363072 267792 174063 172183 -3173
832428720387574784 267997 174183 172248 -3216
832428720405786368 268324 174329 172408 -3184
832428720423997952 268884 174566 172570 -3253
832428720442209536 269442 174862 172795 -3297
832428720460421248 269595 174829 172850 -3231
832428720478632832 269116 174654 172678 -3266
832428720496844416 268441 174276 172414 -3241
832428720515056000 267413 173789 171998 -3225
832428720533267712 266553 173345 171632 -3258
832428720551479296 265983 173021 171396 -3212
832428720569690880 265695 172912 171279 -3179
832428720587902464 265609 172945 171320 -3219
832428720606114176 266179 173085 171480 -3241
832428720624325760 266625 173436 171708 -3215
832428720642537344 266972 173633 171809 -3253
832428720660748928 267344 173805 172025 -3248
832428720678960586 267597 173875 172107 -3255
832428720697173120 267652 173984 172166 -3228
832428720715385600 268001 174134 172249 -3292
832428720733598080 268493 174320 172446 -3200
832428720751810560 268841 174553 172592 -3206
832428720770023040 269282 174830 172820 -3258
832428720788235520 269453 174898 172837 -3263
832428720806448000 269220 174791 172816 -3223
832428720824660480 268581 174438 172503 -3232
832428720842873088 267602 173996 172056 -3228
832428720861085568 266787 173464 171778 -3276
832428720879298048 266168 173180 171540 -3202
832428720897510528 265844 172988 171407 -3258
832428720915723008 265799 172948 171392 -3235
832428720933935488 266067 173137 171504 -3253
832428720952147968 266452 173360 171680 -3210
832428720970360448 266814 173552 171777 -3211
832428720988572928 267113 173730 171931 -3233
832428721006785408 267431 173835 172016 -3269
832428721024997888 267613 173937 172118 -3267
832428721043210368 267821 174039 172158 -3272
832428721061422848 268177 174235 172329 -3148
832428721079635328 268611 174432 172544 -3224
832428721097847808 269365 174786 172820 -3181
832428721116060416 269600 174989 172922 -3234
832428721134272896 269422 174841 172894 -3228
832428721152485376 268795 174525 172604 -3242
832428721170697856 267848 174016 172265 -3231
832428721188910336 266841 173502 171790 -3223
832428721207122816 266181 173173 171538 -3200
832428721225335296 265749 172970 171291 -3171
832428721243547776 265624 172932 171286 -3258
832428721261760256 265861 173007 171384 -3284
832428721279972736 266313 173259 171593 -3228
832428721298185216 266807 173571 171788 -3246
832428721316397684 267289 173741 171933 -3206
832428721334610176 267567 173885 172038 -3183
832428721352822656 267613 173950 172078 -3202
832428721371035136 267735 173986 172163 -3244
832428721389247616 267910 174101 172288 -3206
832428721407460096 268387 174307 172411 -3307
832428721425672576 268927 174588 172650 -3259
832428721443885056 269413 174852 172802 -3246
832428721462097536 269454 174893 172885 -3268
832428721480310144 269092 174637 172727 -3245
832428721498522624 268394 174334 172447 -3253
832428721516735104 267437 173850 172094 -3231
832428721534947584 266552 173404 171707 -3227
832428721553160064 265915 173033 171422 -3203
832428721571372544 265619 172841 171264 -3244
832428721589585024 265738 172952 171362 -3186
832428721607797504 266090 173114 171472 -3250
832428721626009984 266595 173325 171696 -3204
832428721644222464 267074 173583 171942 -3228
832428721662434944 267365 173762 172000 -3299
832428721680647424 267589 173916 172070 -3268
832428721698859904 267868 174056 172258 -3212
832428721717072384 268042 174219 172337 -3217
832428721735284864 268382 174367 172424 -3245
832428721753497472 268781 174557 172557 -3274
832428721771709952 269266 174802 172806 -3224
832428721789922432 269443 174853 172863 -3221
832428721808134912 269174 174775 172781 -3225
832428721826347392 268466 174390 172441 -3287
832428721844559872 267578 173864 172107 -3238
832428721862772352 266686 173497 171738 -3212
832428721880984832 266163 173168 171478 -3197
832428721899197312 265902 173083 171422 -3172
832428721917409792 265904 172991 171353 -3195
832428721935622272 266123 173164 171468 -3238
832428721953834782 266421 173324 171611 -3288
832428721972046336 266851 173501 171796 -3257
832428721990257920 267257 173667 171960 -3248
832428722008469632 267511 173843 172061 -3188
832428722026681216 267724 173894 172113 -3269
832428722044892800 267935 174049 172219 -3188
832428722063104384 268265 174272 172370 -3234
832428722081316096 268809 174527 172525 -3236
832428722099527680 269453 174861 172819 -3174
832428722117739264 269630 175007 172846 -3237
832428722135950848 269366 174827 172803 -3229
832428722154162560 268661 174519 172573 -3187
832428722172374144 267733 174029 172194 -3218
832428722190585728 266866 173564 171790 -3193
832428722208797312 266153 173240 171449 -3215
832428722227009024 265743 172954 171283 -3275
832428722245220608 265660 172963 171363 -3231
832428722263432192 266031 173101 171414 -3181
832428722281643776 266457 173298 171687 -3216
832428722299855488 266912 173551 171793 -3211
832428722318067072 267232 173760 171927 -3306
832428722336278656 267429 173818 172034 -3253
832428722354490240 267507 173942 172107 -3194
832428722372701952 267744 173949 172174 -3220
832428722390913536 268133 174182 172272 -3237
832428722409125120 268616 174382 172501 -3238
832428722427336704 269098 174642 172704 -3271
832428722445548416 269530 174825 172914 -3262
832428722463760000 269496 174880 172875 -3249
832428722481971584 269107 174666 172746 -3290
832428722500183168 268256 174318 172403 -3245
832428722518394880 267298 173769 171994 -3298
832428722536606464 266379 173306 171576 -3210
832428722554818048 265792 172996 171338 -3246
832428722573029632 265617 172921 171286 -3252
832428722591241344 265793 172956 171322 -3251
832428722609452968 266227 173176 171533 -3193
832428722627666048 266730 173461 171798 -3201
832428722645879168 267119 173625 171878 -3291
832428722664092288 267416 173823 172058 -3252
832428722682305408 267665 173913 172143 -3216
832428722700518400 267764 173980 172150 -3289
832428722718731520 268047 174100 172309 -3264
832428722736944640 268303 174221 172376 -3315
832428722755157760 268675 174390 172542 -3305
832428722773370880 269236 174739 172764 -3297
832428722791584000 269363 174857 172847 -3253
832428722809796992 269102 174696 172754 -3232
832428722828010112 268371 174271 172387 -3286
832428722846223232 267540 173841 172119 -3223
832428722864436352 266765 173427 171740 -3236
832428722882649472 266130 173129 171510 -3230
832428722900862592 265695 172881 171295 -3288
832428722919075584 265827 172935 171371 -3232
832428722937288704 266097 173074 171436 -3247
832428722955501824 266404 173308 171591 -3325
832428722973714944 266945 173573 171812 -3244
832428722991928064 267288 173730 171982 -3198
832428723010141184 267580 173894 172061 -3248
832428723028354176 267725 173937 172189 -3257
832428723046567296 267951 174079 172240 -3235
832428723064780416 268330 174280 172391 -3296
832428723082993536 268752 174458 172550 -3258
832428723101206656 269316 174782 172795 -3204
832428723119419776 269538 174863 172846 -3297
832428723137632768 269198 174734 172744 -3302
832428723155845888 268446 174370 172467 -3269
832428723174059008 267621 173935 172065 -3272
832428723192272128 266818 173496 171791 -3268
832428723210485248 266157 173194 171468 -3270
832428723228698368 265741 172933 171317 -3276
832428723246911430 265636 172906 171248 -3339
832428723265123328 266018 173119 171422 -3264
832428723283335168 266454 173329 171553 -3270
832428723301547136 266863 173497 171730 -3238
832428723319758976 267259 173689 171942 -3237
832428723337970816 267411 173802 171998 -3214
832428723356182656 267510 173834 172062 -3247
832428723374394624 267744 173964 172151 -3265
832428723392606464 268082 174157 172260 -3219
832428723410818304 268576 174335 172468 -3245
832428723429030272 269119 174592 172714 -3210
832428723447242112 269513 174879 172870 -3279
832428723465453952 269470 174833 172843 -3218
832428723483665920 268941 174617 172632 -3232
832428723501877760 268063 174253 172351 -3178
832428723520089600 267057 173648 171838 -3271
832428723538301440 266138 173162 171468 -3285
832428723556513408 265649 172960 171324 -3225
832428723574725248 265567 172936 171274 -3247
832428723592937088 265857 173003 171432 -3257
832428723611149056 266309 173178 171548 -3212
832428723629360896 266744 173406 171748 -3267
832428723647572736 267173 173683 171913 -3257
832428723665784704 267531 173874 172036 -3246
832428723683996544 267678 173964 172105 -3234
832428723702208384 267778 173994 172198 -3159
832428723720420224 268002 174113 172301 -3170
832428723738632192 268293 174269 172394 -3230
832428723756844032 268831 174543 172570 -3218
832428723775055872 269380 174827 172823 -3258
832428723793267840 269516 174896 172858 -3270
832428723811479680 269078 174664 172694 -3237
832428723829691520 268383 174346 172405 -3254
832428723847903488 267512 173861 171991 -3230
832428723866115328 266670 173448 171693 -3204
832428723884327164 266005 173086 171423 -3164
832428723902538752 265705 172968 171372 -3181
832428723920750336 265666 172918 171320 -3262
832428723938962048 265975 173113 171371 -3264
832428723957173632 266500 173330 171604 -3239
832428723975385216 266932 173537 171815 -3311
832428723993596800 267365 173740 171977 -3220
832428724011808512 267664 173906 172115 -3197
832428724030020096 267791 174023 172141 -3227
832428724048231680 268027 174134 172232 -3268
832428724066443264 268394 174334 172426 -3221
832428724084654976 268927 174552 172638 -3294
832428724102866560 269423 174850 172880 -3275
832428724121078144 269439 174879 172907 -3215
832428724139289728 269129 174689 172715 -3256
832428724157501440 268513 174388 172462 -3200
832428724175713024 267655 173927 172086 -3257
832428724193924608 266876 173555 171773 -3216
832428724212136192 266124 173172 171505 -3229
832428724230347904 265703 172937 171325 -3215
832428724248559488 265759 172947 171372 -3212
832428724266771072 266015 173116 171492 -3275
832428724284982656 266476 173322 171631 -3263
832428724303194368 266869 173555 171807 -3238
832428724321405952 267086 173643 171847 -3246
832428724339617536 267356 173803 172034 -3210
832428724357829120 267481 173941 172051 -3258
832428724376040832 267810 174069 172195 -3317
832428724394252416 268263 174298 172342 -3256
832428724412464000 268719 174507 172555 -3219
832428724430675584 269272 174756 172787 -3165
832428724448887296 269585 174894 172886 -3254
832428724467098880 269478 174912 172850 -3216
832428724485310464 268892 174652 172607 -3223
832428724503522048 268018 174143 172292 -3187
832428724521733744 266971 173616 171870 -3239
832428724539944576 266151 173168 171514 -3273
832428724558155392 265779 173022 171382 -3247
832428724576366208 265707 172906 171287 -3239
832428724594576896 265881 173140 171400 -3273
832428724612787712 266246 173211 171546 -3242
832428724630998528 266779 173482 171797 -3265
832428724649209344 267189 173676 171957 -3202
832428724667420032 267437 173829 172016 -3274
832428724685630848 267568 173862 172019 -3272
832428724703841664 267654 173915 172107 -3255
832428724722052480 267956 174122 172285 -3202
832428724740263296 268353 174341 172401 -3213
832428724758473984 268937 174610 172626 -3266
832428724776684800 269465 174869 172875 -3228
832428724794895616 269551 174909 172897 -3275
832428724813106432 269103 174662 172683 -3284
832428724831317120 268360 174305 172384 -3298
832428724849527936 267433 173777 171984 -3216
832428724867738752 266490 173385 171639 -3227
832428724885949568 265891 173040 171346 -3305
832428724904160384 265598 172856 171250 -3302
832428724922371072 265578 172957 171277 -3289
832428724940581888 266040 173141 171462 -3216
832428724958792704 266554 173433 171685 -3275
832428724977003520 267020 173562 171842 -3310
832428724995214336 267335 173722 171977 -3254
832428725013425024 267579 173826 172075 -3215
832428725031635840 267729 173961 172156 -3249
832428725049846656 268015 174130 172256 -3224
832428725068057472 268395 174314 172430 -3215
832428725086268160 268807 174559 172604 -3229
832428725104478976 269317 174815 172779 -3224
832428725122689792 269395 174795 172771 -3289
832428725140900608 269150 174704 172730 -3244
832428725159111320 268473 174349 172397 -3300
832428725177322624 267619 173822 172070 -3240
832428725195533952 266689 173434 171684 -3265
832428725213745280 266049 173136 171507 -3189
832428725231956608 265805 172974 171362 -3247
832428725250167808 265792 172981 171335 -3235
832428725268379136 266001 173090 171456 -3291
832428725286590464 266416 173279 171605 -3214
832428725304801792 266795 173476 171748 -3248
832428725323013120 267147 173686 171836 -3199
832428725341224448 267466 173853 172033 -3216
832428725359435776 267637 173892 172077 -3255
832428725377647104 267934 174056 172168 -3245
832428725395858304 268283 174215 172325 -3218
832428725414069632 268728 174452 172490 -3231
832428725432280960 269319 174776 172758 -3169
832428725450492288 269613 174888 172891 -3217
832428725468703616 269420 174826 172827 -3232
832428725486914944 268763 174521 172506 -3259
832428725505126272 267816 174059 172216 -3245
832428725523337600 266894 173488 171853 -3240
832428725541548800 266137 173206 171475 -3290
832428725559760128 265727 172993 171373 -3247
832428725577971456 265635 172947 171339 -3218
832428725596182784 265810 173008 171393 -3261
832428725614394112 266376 173277 171554 -3221
832428725632605440 266894 173535 171755 -3180
832428725650816768 267246 173716 171960 -3241
832428725669028096 267455 173818 172020 -3229
832428725687239296 267571 173976 172075 -3241
832428725705450624 267682 174048 172197 -3239
832428725723661952 268047 174206 172266 -3275
832428725741873280 268503 174375 172453 -3251
832428725760084608 269095 174625 172696 -3206
832428725778295936 269549 174922 172872 -3210
832428725796507222 269503 174919 172875 -3207
832428725814720384 269030 174649 172709 -3240
832428725832933504 268282 174279 172390 -3238
832428725851146624 267319 173789 172034 -3281
832428725869359872 266472 173296 171659 -3261
832428725887572992 265824 172963 171390 -3285
832428725905786112 265563 172853 171248 -3242
832428725923999232 265693 172946 171327 -3237
832428725942212352 266157 173173 171526 -3203
832428725960425472 266656 173451 171721 -3188
832428725978638720 267071 173613 171880 -3213
832428725996851840 267410 173840 171946 -3255
832428726015064960 267722 173965 172111 -3229
832428726033278080 267785 174017 172146 -3251
832428726051491200 268034 174077 172278 -3206
832428726069704320 268371 174257 172395 -3249
832428726087917568 268817 174473 172639 -3263
832428726106130688 269240 174748 172834 -3297
832428726124343808 269456 174854 172866 -3223
832428726142556928 269167 174703 172733 -3244
832428726160770048 268480 174352 172427 -3285
832428726178983296 267599 173912 172104 -3214
832428726197196416 266698 173440 171708 -3264
832428726215409536 266092 173203 171489 -3222
832428726233622656 265807 173014 171388 -3210
832428726251835776 265744 173007 171347 -3228
832428726270048896 266024 173141 171482 -3210
832428726288262144 266439 173316 171618 -3251
832428726306475264 266897 173510 171756 -3275
832428726324688384 267241 173738 171957 -3246
832428726342901504 267450 173810 172000 -3185
832428726361114624 267695 173949 172093 -3169
832428726379327744 267900 174030 172201 -3219
832428726397540992 268283 174196 172350 -3244
832428726415754112 268756 174505 172577 -3247
832428726433967232 269289 174716 172764 -3250
832428726452180350 269536 174888 172909 -3270
832428726470393472 269305 174806 172817 -3204
832428726488606592 268598 174443 172438 -3266
832428726506819712 267804 174035 172115 -3303
832428726525032960 266863 173574 171765 -3309
832428726543246080 266245 173192 171572 -3270
832428726561459200 265754 172984 171398 -3308
832428726579672320 265813 172984 171390 -3254
832428726597885440 266081 173131 171465 -3254
832428726616098560 266482 173321 171617 -3247
832428726634311808 266911 173569 171875 -3255
832428726652524928 267225 173716 171933 -3217
832428726670738048 267370 173753 172046 -3286
832428726688951168 267500 173860 172068 -3251
832428726707164288 267717 173945 172170 -3234
832428726725377408 268092 174137 172275 -3269
832428726743590656 268560 174383 172462 -3321
832428726761803776 269175 174720 172702 -3262
832428726780016896 269544 174934 172899 -3273
832428726798230016 269511 174869 172860 -3269
832428726816443136 269017 174581 172698 -3270
832428726834656384 268154 174149 172276 -3242
832428726852869504 267173 173731 171949 -3212
832428726871082624 266346 173254 171556 -3202
832428726889295744 265704 172928 171312 -3198
832428726907508864 265600 172866 171288 -3254
832428726925721984 265795 172929 171372 -3285
832428726943935232 266194 173112 171522 -3214
832428726962148352 266697 173418 171719 -3257
832428726980361472 267132 173660 171947 -3234
832428726998574592 267454 173864 172042 -3242
832428727016787712 267635 173941 172111 -3214
832428727035000832 267772 173989 172137 -3190
832428727053214080 267979 174163 172263 -3173
832428727071427200 268319 174264 172400 -3228
832428727089640336 268809 174487 172601 -3275
832428727107853440 269370 174761 172767 -3232
832428727126066560 269493 174874 172828 -3269
832428727144279680 269174 174685 172732 -3281
832428727162492928 268447 174276 172423 -3242
832428727180706048 267547 173852 172033 -3264
832428727198919168 266605 173383 171633 -3248
832428727217132288 266018 173118 171406 -3246
832428727235345408 265674 172934 171342 -3271
832428727253558528 265680 172935 171354 -3196
832428727271771776 266001 173058 171453 -3267
832428727289984896 266458 173337 171651 -3259
832428727308198016 266892 173598 171786 -3281
832428727326411136 267240 173767 171921 -3228
832428727344624256 267485 173842 172025 -3272
832428727362837376 267669 173918 172151 -3293
832428727381050624 267954 174017 172199 -3269
832428727399263744 268377 174220 172418 -3201
832428727417476864 268781 174451 172556 -3241
832428727435689984 269311 174813 172796 -3218
832428727453903104 269488 174877 172857 -3223
832428727472116352 269134 174699 172698 -3275
832428727490329472 268532 174340 172464 -3282
832428727508542592 267707 173925 172124 -3251
832428727526755712 266786 173529 171769 -3254
832428727544968832 266135 173165 171508 -3237
832428727563181952 265794 172974 171383 -3205
832428727581395200 265838 173004 171409 -3216
832428727599608320 266090 173111 171476 -3253
832428727617821440 266485 173337 171646 -3285
832428727636034560 266874 173589 171757 -3286
832428727654247680 267189 173670 171915 -3269
832428727672460800 267403 173833 172013 -3197
832428727690674048 267578 173890 172084 -3196
832428727708887168 267838 174020 172135 -3202
832428727727100322 268191 174163 172276 -3225
832428727745313664 268593 174404 172459 -3220
832428727763527040 269172 174722 172727 -3225
832428727781740416 269655 174963 172964 -3231
832428727799953792 269525 174902 172907 -3160
832428727818167168 268902 174617 172653 -3270
832428727836380416 268013 174100 172280 -3266
832428727854593792 266978 173656 171837 -3281
832428727872807168 266236 173242 171566 -3202
832428727891020544 265752 172993 171350 -3230
832428727909233920 265684 172874 171317 -3216
832428727927447296 265898 172967 171358 -3273
832428727945660672 266298 173267 171577 -3259
832428727963874048 266794 173478 171772 -3234
832428727982087296 267253 173742 171960 -3227
832428728000300672 267598 173868 172046 -3240
832428728018514048 267579 173895 172124 -3262
832428728036727424 267694 173979 172151 -3261
832428728054940800 267911 174051 172204 -3291
832428728073154176 268413 174300 172459 -3197
832428728091367552 268910 174611 172635 -3217
832428728109580928 269410 174876 172823 -3247
832428728127794176 269486 174908 172815 -3288
832428728146007552 269104 174686 172689 -3222
832428728164220928 268435 174320 172433 -3220
832428728182434304 267488 173863 172086 -3183
832428728200647680 266683 173455 171802 -3211
832428728218861056 266012 173140 171438 -3183
832428728237074432 265675 172921 171354 -3186
832428728255287808 265683 172955 171285 -3255
832428728273501056 266116 173073 171478 -3251
832428728291714432 266541 173365 171604 -3264
832428728309927808 267048 173604 171849 -3281
832428728328141184 267358 173852 172028 -3236
832428728346354560 267557 173886 172088 -3202
832428728364567928 267801 173989 172222 -3238
832428728382780416 268118 174166 172353 -3221
832428728400992896 268401 174303 172456 -3248
832428728419205376 268839 174526 172627 -3220
832428728437417856 269359 174775 172759 -3237
832428728455630336 269434 174876 172844 -3234
832428728473842816 269163 174729 172827 -3214
832428728492055296 268442 174366 172497 -3237
832428728510267776 267617 173965 172119 -3216
832428728528480384 266750 173543 171804 -3217
832428728546692864 266153 173153 171485 -3227
832428728564905344 265825 173015 171398 -3269
832428728583117824 265846 173016 171377 -3193
832428728601330304 266100 173103 171493 -3202
832428728619542784 266463 173315 171663 -3247
832428728637755264 266854 173500 171797 -3254
832428728655967744 267136 173684 171931 -3248
832428728674180224 267461 173777 172070 -3227
832428728692392704 267648 173945 172167 -3255
832428728710605184 267935 174003 172222 -3185
832428728728817664 268235 174205 172351 -3251
832428728747030144 268681 174451 172521 -3276
832428728765242624 269315 174793 172822 -3249
832428728783455104 269626 174958 172919 -3267
832428728801667712 269464 174881 172879 -3229
832428728819880192 268828 174573 172633 -3193
832428728838092672 267824 174057 172146 -3163
832428728856305152 266815 173497 171773 -3265
832428728874517632 266193 173175 171507 -3270
832428728892730112 265765 172970 171314 -3231
832428728910942592 265584 172843 171253 -3270
832428728929155072 265837 173009 171403 -3210
832428728947367552 266280 173244 171605 -3186
832428728965580032 266823 173563 171807 -3267
832428728983792512 267221 173701 171927 -3258
832428729002005026 267430 173843 171972 -3233
832428729020217472 267548 173928 172077 -3239
832428729038429952 267688 173971 172087 -3258
832428729056642432 268052 174141 172240 -3264
832428729074854912 268436 174320 172417 -3239
832428729093067392 268993 174573 172674 -3248
832428729111279872 269393 174811 172851 -3254
832428729129492352 269448 174858 172858 -3253
832428729147704832 269003 174613 172653 -3286
832428729165917440 268267 174303 172384 -3300
832428729184129920 267303 173773 171942 -3270
832428729202342400 266437 173340 171617 -3270
832428729220554880 265750 172992 171377 -3307
832428729238767360 265575 172870 171259 -3272
832428729256979840 265771 172955 171288 -3228
832428729275192320 266170 173227 171555 -3217
832428729293404800 266639 173429 171680 -3242
832428729311617280 267081 173625 171859 -3242
832428729329829760 267362 173744 171970 -3232
832428729348042240 267600 173841 172110 -3263
832428729366254720 267807 174027 172216 -3190
832428729384467200 268006 174123 172283 -3239
832428729402679680 268401 174306 172426 -3244
832428729420892160 268812 174554 172596 -3202
832428729439104768 269215 174746 172781 -3159
832428729457317248 269409 174833 172792 -3177
832428729475529728 269189 174715 172737 -3168
832428729493742208 268493 174386 172469 -3218
832428729511954688 267612 173927 172130 -3195
832428729530167168 266763 173477 171702 -3235
832428729548379648 266132 173181 171478 -3224
832428729566592128 265776 172988 171388 -3245
832428729584804608 265785 172987 171328 -3270
832428729603017088 265995 173073 171353 -3257
832428729621229568 266421 173301 171587 -3261
832428729639442124 266880 173515 171789 -3198
832428729657653760 267252 173697 171955 -3212
832428729675865344 267555 173867 172046 -3197
832428729694077056 267679 173964 172120 -3163
832428729712288640 267878 174067 172250 -3228
832428729730500224 268216 174213 172379 -3274
832428729748711808 268792 174522 172522 -3221
832428729766923520 269329 174803 172811 -3239
832428729785135104 269600 174962 172916 -3219
832428729803346688 269372 174757 172796 -3242
832428729821558272 268649 174402 172527 -3249
832428729839769984 267735 173922 172115 -3274
832428729857981568 266862 173544 171737 -3220
832428729876193152 266178 173182 171512 -3184
832428729894404736 265742 172952 171338 -3230
832428729912616448 265655 172881 171288 -3228
832428729930828032 265980 173068 171432 -3239
832428729949039616 266465 173331 171650 -3231
832428729967251200 266845 173550 171800 -3251
832428729985462912 267247 173709 171918 -3236
832428730003674496 267425 173842 172053 -3160
832428730021886080 267400 173839 172061 -3207
832428730040097664 267746 173986 172154 -3190
832428730058309376 268138 174143 172291 -3203
832428730076520960 268585 174385 172462 -3246
832428730094732544 269122 174675 172724 -3208
832428730112944128 269507 174864 172852 -3241
832428730131155840 269577 174902 172875 -3244
832428730149367424 269084 174704 172691 -3257
832428730167579008 268216 174277 172328 -3255
832428730185790592 267299 173781 172013 -3167
832428730204002304 266380 173300 171610 -3222
832428730222213888 265685 172928 171269 -3285
832428730240425472 265591 172870 171260 -3258
832428730258637056 265784 173003 171339 -3256
832428730276848704 266217 173192 171549 -3270
832428730295060864 266723 173411 171719 -3208
832428730313273088 267130 173671 171891 -3213
832428730331485440 267467 173835 172031 -3261
832428730349697664 267650 173931 172199 -3236
832428730367909888 267801 174003 172189 -3231
832428730386122240 268022 174195 172295 -3180
832428730404334464 268320 174321 172423 -3234
832428730422546816 268742 174549 172553 -3227
832428730440759040 269308 174836 172760 -3257
832428730458971264 269513 174881 172895 -3184
832428730477183616 269132 174699 172746 -3249
832428730495395840 268386 174304 172430 -3261
832428730513608064 267517 173837 172080 -3203
832428730531820416 266725 173434 171810 -3200
832428730550032640 266127 173206 171522 -3201
832428730568244864 265742 172992 171335 -3177
832428730586457216 265753 173052 171351 -3196
832428730604669440 266046 173128 171483 -3208
832428730622881792 266451 173296 171583 -3240
832428730641094016 266946 173572 171820 -3263
832428730659306240 267316 173774 171965 -3227
832428730677518592 267588 173944 172066 -3191
832428730695730816 267739 174011 172116 -3198
832428730713943040 267979 174103 172174 -3191
832428730732155392 268381 174376 172386 -3291
832428730750367616 268857 174584 172578 -3256
832428730768579840 269420 174810 172788 -3212
832428730786792192 269564 174927 172889 -3240
832428730805004416 269277 174773 172824 -3233
832428730823216640 268584 174406 172521 -3218
832428730841428992 267725 173977 172168 -3272
832428730859641216 266870 173566 171832 -3206
832428730877853568 266103 173106 171461 -3271
832428730896065792 265711 172922 171297 -3298
832428730914278164 265718 172913 171319 -3228
832428730932492160 266027 173156 171432 -3262
832428730950706176 266520 173366 171687 -3263
832428730968920192 266903 173551 171837 -3263
832428730987134208 267176 173745 172002 -3270
832428731005348224 267335 173778 171973 -3279
832428731023562240 267566 173897 172110 -3197
832428731041776256 267766 174005 172120 -3249
832428731059990272 268215 174229 172369 -3218
832428731078204288 268649 174475 172532 -3238
832428731096418304 269183 174729 172745 -3199
832428731114632320 269643 174868 172902 -3256
832428731132846336 269550 174887 172853 -3292
832428731151060352 268979 174627 172682 -3198
832428731169274368 268131 174212 172318 -3197
832428731187488384 267119 173662 171896 -3187
832428731205702400 266183 173163 171512 -3253
832428731223916416 265642 172956 171257 -3251
832428731242130432 265650 172956 171315 -3236
832428731260344448 265912 173088 171412 -3230
832428731278558464 266284 173231 171537 -3283
832428731296772480 266760 173482 171759 -3308
832428731314986496 267170 173656 171914 -3239
832428731333200512 267514 173843 172062 -3224
832428731351414528 267601 173906 172037 -3241
832428731369628544 267711 174015 172171 -3205
832428731387842560 267980 174058 172268 -3248
832428731406056576 268321 174222 172357 -3294
832428731424270592 268892 174507 172602 -3292
832428731442484608 269422 174816 172802 -3247
832428731460698624 269478 174818 172795 -3254
832428731478912640 269046 174600 172669 -3291
832428731497126656 268262 174269 172388 -3240
832428731515340672 267422 173781 172007 -3256
832428731533554688 266581 173399 171684 -3231
832428731551768668 266024 173026 171449 -3296
832428731569982464 265671 172889 171286 -3301
832428731588196224 265584 172860 171217 -3265
832428731606410112 265996 173028 171409 -3263
832428731624623872 266571 173348 171611 -3230
832428731642837632 266984 173580 171809 -3286
832428731661051392 267305 173696 171944 -3270
832428731679265280 267535 173878 172024 -3256
832428731697479040 267772 173998 172117 -3291
832428731715692800 268039 174095 172239 -3223
832428731733906688 268421 174354 172396 -3218
832428731752120448 268779 174512 172598 -3268
832428731770334208 269344 174761 172763 -3317
832428731788547968 269433 174847 172781 -3293
832428731806761856 269182 174688 172708 -3210
832428731824975616 268500 174349 172461 -3198
832428731843189376 267660 173872 172094 -3247
832428731861403264 266709 173410 171685 -3286
832428731879617024 266004 173048 171419 -3259
832428731897830784 265751 172887 171329 -3273
832428731916044544 265809 172956 171373 -3256
832428731934258432 266058 173017 171431 -3234
832428731952472192 266416 173292 171640 -3227
832428731970685952 266829 173452 171738 -3245
832428731988899840 267127 173670 171882 -3253
832428732007113600 267387 173807 171948 -3316
832428732025327360 267616 173918 172044 -3298
832428732043541120 267781 174105 172163 -3221
832428732061755008 268180 174261 172369 -3233
832428732079968768 268671 174449 172523 -3234
832428732098182528 269225 174769 172809 -3213
832428732116396416 269526 174881 172914 -3256
832428732134610176 269423 174773 172828 -3317
832428732152823936 268771 174469 172602 -3315
832428732171037696 267855 173986 172228 -3294
832428732189251542 266814 173513 171736 -3292
832428732207464960 266047 173078 171406 -3289
832428732225678336 265676 172871 171288 -3325
832428732243891712 265607 172878 171267 -3239
832428732262104960 265888 172975 171426 -3246
832428732280318336 266363 173249 171564 -3216
832428732298531712 266810 173462 171735 -3233
832428732316745088 267174 173653 171888 -3263
832428732334958464 267411 173823 172007 -3284
832428732353171840 267517 173920 172118 -3291
832428732371385088 267738 173995 172201 -3200
832428732389598464 267947 174056 172213 -3264
832428732407811840 268446 174352 172421 -3197
832428732426025216 268935 174610 172661 -3235
832428732444238592 269453 174909 172891 -3187
832428732462451968 269496 174911 172871 -3263
832428732480665216 269045 174668 172676 -3220
832428732498878592 268275 174301 172416 -3190
832428732517091968 267311 173887 171998 -3236
832428732535305344 266475 173356 171633 -3229
832428732553518720 265819 172998 171326 -3233
832428732571732096 265611 172940 171302 -3215
832428732589945344 265771 172977 171319 -3235
832428732608158720 266198 173168 171502 -3222
832428732626372096 266612 173394 171709 -3249
832428732644585472 267143 173675 171922 -3251
832428732662798848 267464 173776 172009 -3233
832428732681012224 267617 173939 172133 -3193
832428732699225472 267803 173965 172161 -3220
832428732717438848 268003 174159 172223 -3238
832428732735652224 268336 174277 172374 -3232
832428732753865600 268826 174536 172571 -3258
832428732772078976 269246 174707 172721 -3236
832428732790292352 269395 174816 172823 -3230
832428732808505600 269149 174705 172759 -3164
832428732826718976 268435 174334 172428 -3244
832428732844932300 267611 173903 172080 -3324
832428732863144832 266731 173433 171702 -3334
832428732881357312 266169 173114 171473 -3314
832428732899569664 265835 172936 171369 -3275
832428732917782144 265785 172924 171371 -3285
832428732935994624 266082 173094 171470 -3299
832428732954207104 266431 173399 171654 -3225
832428732972419456 266743 173515 171757 -3252
832428732990631936 267118 173673 171896 -3274
832428733008844416 267461 173828 171991 -3231
832428733027056896 267623 173937 172079 -3239
832428733045269248 267833 173993 172224 -3224
832428733063481728 268251 174264 172335 -3297
832428733081694208 268717 174473 172593 -3323
832428733099906560 269253 174774 172789 -3281
832428733118119040 269548 174899 172835 -3256
832428733136331520 269282 174754 172799 -3285
832428733154544000 268668 174436 172565 -3270
832428733172756352 267803 173984 172156 -3235
832428733190968832 266978 173539 171824 -3180
832428733209181312 266149 173151 171483 -3248
832428733227393664 265744 172891 171319 -3261
832428733245606144 265712 172933 171308 -3188
832428733263818624 265989 173037 171397 -3230
832428733282031104 266416 173304 171637 -3253
832428733300243456 266892 173556 171829 -3185
832428733318455936 267236 173718 171939 -3208
832428733336668416 267421 173779 171951 -3271
832428733354880896 267517 173849 172016 -3252
832428733373093248 267665 174020 172134 -3217
832428733391305728 268054 174160 172275 -3219
832428733409518208 268550 174400 172447 -3271
832428733427730560 269086 174666 172663 -3248
832428733445943040 269550 174941 172885 -3215
832428733464155520 269493 174922 172870 -3244
832428733482367862 268997 174739 172719 -3194
832428733500581376 268186 174231 172357 -3285
832428733518794880 267242 173722 171948 -3257
832428733537008384 266387 173280 171595 -3252
832428733555221760 265756 172948 171322 -3221
832428733573435264 265596 172916 171294 -3238
832428733591648768 265823 173027 171366 -3235
832428733609862272 266266 173209 171533 -3266
832428733628075776 266653 173476 171737 -3281
832428733646289280 267116 173697 171948 -3179
832428733664502656 267522 173801 172029 -3213
832428733682716160 267630 173947 172117 -3200
832428733700929664 267779 174030 172157 -3133
832428733719143168 268006 174146 172222 -3184
832428733737356672 268396 174311 172373 -3229
832428733755570176 268880 174555 172643 -3262
832428733773783552 269345 174796 172765 -3285
832428733791997056 269452 174914 172867 -3261
832428733810210560 269205 174693 172749 -3229
832428733828424064 268479 174341 172444 -3254
832428733846637568 267549 173911 172112 -3266
832428733864851072 266704 173427 171727 -3264
832428733883064448 266047 173106 171498 -3244
832428733901277952 265723 172901 171330 -3234
832428733919491456 265753 172983 171387 -3214
832428733937704960 266057 173136 171436 -3274
832428733955918464 266380 173318 171608 -3282
832428733974131840 266948 173611 171792 -3292
832428733992345344 267290 173785 171926 -3247
832428734010558848 267549 173861 172048 -3225
832428734028772352 267669 174005 172115 -3181
832428734046985856 267953 174110 172218 -3207
832428734065199360 268398 174296 172467 -3201
832428734083412736 268844 174563 172657 -3179
832428734101626240 269359 174856 172863 -3178
832428734119839744 269521 174882 172909 -3208
832428734138053200 269274 174815 172813 -3221
832428734156267008 268624 174413 172459 -3199
832428734174480768 267749 173949 172126 -3271
832428734192694656 266855 173533 171812 -3249
832428734210908416 266136 173175 171502 -3225
832428734229122304 265779 172976 171326 -3236
832428734247336064 265779 172919 171316 -3196
832428734265549952 266031 173171 171447 -3244
832428734283763712 266508 173351 171689 -3259
832428734301977600 266850 173520 171807 -3272
832428734320191360 267147 173704 171961 -3266
832428734338405248 267382 173776 172039 -3284
832428734356619008 267582 173895 172191 -3200
832428734374832896 267814 173991 172232 -3256
832428734393046656 268166 174233 172372 -3254
832428734411260544 268664 174409 172503 -3263
832428734429474304 269165 174693 172788 -3249
832428734447688192 269515 174931 172959 -3229
832428734465901952 269543 174911 172924 -3160
832428734484115840 268985 174579 172689 -3213
832428734502329600 268139 174174 172307 -3254
832428734520543360 267077 173629 171859 -3246
832428734538757248 266211 173185 171515 -3238
832428734556971008 265760 172903 171345 -3241
832428734575184896 265652 172957 171308 -3210
832428734593398656 265825 173038 171371 -3217
832428734611612544 266232 173289 171549 -3237
832428734629826304 266667 173499 171720 -3281
832428734648040192 267222 173755 171987 -3196
832428734666253952 267472 173834 172032 -3247
832428734684467840 267635 173966 172114 -3214
832428734702681600 267770 174075 172190 -3194
832428734720895488 268003 174186 172293 -3153
832428734739109248 268327 174284 172353 -3196
832428734757323136 268969 174605 172617 -3214
832428734775536896 269423 174871 172818 -3222
832428734793750742 269551 174905 172890 -3168
832428734811965440 269169 174712 172780 -3187
832428734830180096 268370 174286 172425 -3227
832428734848394752 267551 173861 172065 -3206
832428734866609408 266678 173462 171782 -3189
832428734884824064 266000 173106 171485 -3257
832428734903038720 265704 172974 171345 -3269
832428734921253504 265711 172952 171338 -3199
832428734939468160 266076 173084 171419 -3262
832428734957682816 266522 173330 171607 -3270
832428734975897472 266964 173623 171797 -3265
832428734994112128 267289 173769 171904 -3235
832428735012326784 267536 173897 172088 -3190
832428735030541440 267666 173961 172138 -3224
832428735048756096 267946 174082 172255 -3284
832428735066970752 268352 174308 172433 -3234
832428735085185408 268820 174551 172614 -3215
832428735103400192 269276 174777 172775 -3271
832428735121614848 269387 174851 172839 -3241
832428735139829504 269186 174715 172694 -3229
832428735158044160 268506 174423 172455 -3210
832428735176258816 267684 173957 172165 -3210
832428735194473472 266778 173517 171799 -3217
832428735212688128 266047 173138 171497 -3245
832428735230902784 265681 172934 171341 -3251
832428735249117440 265752 172985 171363 -3316
832428735267332096 266073 173097 171510 -3271
832428735285546880 266471 173352 171612 -3255
832428735303761536 266870 173499 171757 -3244
832428735321976192 267150 173675 171891 -3240
832428735340190848 267376 173828 171964 -3279
832428735358405504 267628 173877 172071 -3233
832428735376620160 267862 174074 172220 -3188
832428735394834816 268218 174296 172343 -3238
832428735413049472 268654 174438 172476 -3238
832428735431264134 269326 174740 172727 -3269
832428735449478784 269676 175006 172928 -3228
832428735467693440 269514 174975 172900 -3184
832428735485908096 268841 174524 172633 -3183
832428735504122752 267980 174105 172288 -3172
832428735522337408 266880 173513 171794 -3287
832428735540552064 266177 173195 171529 -3274
832428735558766848 265759 172965 171352 -3222
832428735576981504 265660 172837 171303 -3288
832428735595196160 265860 172979 171392 -3252
832428735613410816 266296 173228 171561 -3235
832428735631625472 266825 173495 171832 -3187
832428735649840128 267251 173737 171901 -3190
832428735668054784 267471 173823 172082 -3215
832428735686269440 267562 173888 172056 -3263
832428735704484096 267680 173928 172126 -3199
832428735722698752 267907 174048 172209 -3246
832428735740913536 268410 174342 172395 -3248
832428735759128192 268981 174611 172648 -3216
832428735777342848 269430 174853 172816 -3187
832428735795557504 269482 174870 172845 -3212
832428735813772160 269049 174617 172647 -3229
832428735831986816 268279 174226 172310 -3241
832428735850201472 267407 173803 172041 -3239
832428735868416128 266517 173363 171695 -3216
832428735886630784 265887 173095 171412 -3219
832428735904845440 265569 172888 171251 -3242
832428735923060096 265735 172964 171361 -3184
832428735941274880 266125 173169 171509 -3228
832428735959489536 266611 173404 171638 -3245
832428735977704192 267039 173604 171861 -3257
832428735995918848 267241 173735 171941 -3253
832428736014133504 267588 173913 172075 -3212
832428736032348160 267804 174049 172198 -3189
832428736050562816 268078 174177 172305 -3215
832428736068777520 268350 174281 172390 -3271
832428736086992128 268724 174451 172510 -3292
832428736105206784 269222 174779 172776 -3231
832428736123421440 269376 174766 172843 -3234
832428736141636096 269099 174600 172712 -3238
832428736159850752 268492 174338 172448 -3235
832428736178065408 267640 173930 172109 -3228
832428736196280192 266694 173430 171717 -3235
832428736214494848 266091 173135 171411 -3244
832428736232709504 265779 172946 171347 -3246
832428736250924160 265794 172948 171387 -3199
832428736269138816 266086 173102 171467 -3223
832428736287353472 266465 173291 171612 -3263
832428736305568128 266782 173530 171717 -3261
832428736323782784 267162 173673 171854 -3232
832428736341997440 267484 173811 172024 -3193
832428736360212096 267661 173911 172092 -3174
832428736378426880 267857 174031 172202 -3241
832428736396641536 268166 174210 172318 -3317
832428736414856192 268773 174447 172543 -3185
832428736433070848 269342 174797 172787 -3173
832428736451285504 269589 174972 172891 -3212
832428736469500160 269422 174850 172814 -3211
832428736487714816 268690 174434 172489 -3229
832428736505929472 267714 174047 172137 -3250
832428736524144128 266875 173505 171779 -3257
832428736542358784 266159 173218 171574 -3208
832428736560573568 265751 173009 171387 -3198
832428736578788224 265695 172956 171362 -3223
832428736597002880 265940 173064 171393 -3207
832428736615217536 266408 173345 171591 -3256
832428736633432192 266865 173577 171813 -3255
832428736651646848 267246 173790 171963 -3204
832428736669861504 267421 173857 172019 -3219
832428736688076160 267566 173945 172120 -3183
832428736706290912 267710 173918 172140 -3220
832428736724505600 268013 174113 172297 -3213
832428736742720256 268473 174375 172485 -3198
832428736760934912 269067 174604 172675 -3189
832428736779149568 269574 174881 172899 -3172
832428736797364224 269452 174903 172853 -3195
832428736815578880 268965 174625 172677 -3224
832428736833793664 268177 174226 172320 -3234
832428736852008320 267238 173771 171929 -3212
832428736870222976 266401 173269 171627 -3217
832428736888437632 265706 172918 171356 -3261
832428736906652288 265563 172841 171274 -3271
832428736924866944 265812 172952 171367 -3255
832428736943081600 266192 173171 171509 -3254
832428736961296256 266697 173424 171751 -3217
832428736979510912 267149 173634 171870 -3213
832428736997725568 267434 173791 171993 -3232
832428737015940352 267638 173859 172072 -3186
832428737034155008 267746 173991 172174 -3168
832428737052369664 268004 174081 172270 -3204
832428737070584320 268387 174302 172397 -3177
832428737088798976 268803 174479 172578 -3173
832428737107013632 269298 174709 172823 -3191
832428737125228288 269460 174797 172881 -3230
832428737143442944 269183 174706 172730 -3212
832428737161657600 268435 174365 172477 -3191
832428737179872256 267481 173910 172051 -3202
832428737198087040 266649 173465 171691 -3266
832428737216301696 266034 173131 171445 -3259
832428737234516352 265743 172938 171333 -3279
832428737252731008 265734 172914 171325 -3242
832428737270945664 266039 173040 171383 -3252
832428737289160320 266359 173297 171591 -3236
832428737307374976 266872 173548 171825 -3254
832428737325589632 267324 173743 171963 -3203
832428737343804304 267585 173858 172060 -3249
832428737362018048 267698 173946 172119 -3211
832428737380231808 267912 174107 172209 -3237
832428737398445696 268303 174280 172405 -3179
832428737416659456 268761 174504 172519 -3222
832428737434873216 269371 174867 172796 -3196
832428737453086976 269537 174844 172865 -3176
832428737471300864 269253 174764 172802 -3219
832428737489514624 268575 174380 172444 -3240
832428737507728384 267779 174017 172106 -3177
832428737525942272 266855 173513 171701 -3169
832428737544156032 266136 173147 171433 -3290
832428737562369792 265820 173020 171350 -3215
832428737580583552 265676 172916 171275 -3259
832428737598797440 266081 173159 171504 -3239
832428737617011200 266480 173372 171653 -3210
832428737635224960 266884 173552 171806 -3212
832428737653438848 267144 173694 171900 -3249
832428737671652608 267320 173774 172049 -3256
832428737689866368 267466 173823 172008 -3252
832428737708080128 267820 173994 172197 -3195
832428737726294016 268095 174123 172295 -3233
832428737744507776 268657 174379 172511 -3305
832428737762721536 269160 174666 172752 -3264
832428737780935424 269590 174922 172965 -3219
832428737799149184 269523 174884 172898 -3219
832428737817362944 268928 174646 172647 -3245
832428737835576704 268040 174183 172316 -3303
832428737853790592 267139 173724 171889 -3233
832428737872004352 266257 173295 171527 -3197
832428737890218112 265695 172957 171267 -3258
832428737908432000 265565 172891 171217 -3250
832428737926645760 265802 173004 171398 -3235
832428737944859520 266212 173266 171552 -3245
832428737963073280 266677 173426 171652 -3249
832428737981287178 267150 173620 171916 -3230
832428737999501056 267383 173791 172009 -3255
832428738017714944 267514 173889 172082 -3259
832428738035928832 267752 173942 172167 -3230
832428738054142720 267940 174102 172267 -3207
832428738072356608 268303 174279 172431 -3200
832428738090570496 268765 174554 172647 -3196
832428738108784384 269338 174852 172818 -3220
832428738126998272 269515 174895 172880 -3229
832428738145212160 269152 174707 172703 -3172
832428738163426048 268333 174323 172438 -3167
832428738181639936 267451 173886 172016 -3218
832428738199853824 266605 173442 171709 -3198
832428738218067712 265939 173114 171438 -3205
832428738236281600 265636 172886 171295 -3272
832428738254495360 265718 172894 171327 -3248
832428738272709248 265996 173092 171406 -3266
832428738290923136 266500 173334 171617 -3200
832428738309137024 266979 173590 171826 -3245
832428738327350912 267264 173736 171945 -3230
832428738345564800 267570 173888 172093 -3203
832428738363778688 267727 173973 172128 -3204
832428738381992576 267973 174059 172233 -3265
832428738400206464 268376 174290 172388 -3267
832428738418420352 268825 174540 172598 -3234
832428738436634240 269338 174827 172823 -3242
832428738454848128 269522 174919 172896 -3234
832428738473062016 269254 174788 172768 -3271
832428738491275904 268507 174396 172532 -3253
832428738509489792 267698 173929 172094 -3233
832428738527703680 266766 173470 171786 -3319
832428738545917568 266117 173152 171517 -3244
832428738564131456 265736 172930 171308 -3212
832428738582345344 265820 173010 171320 -3218
832428738600559232 266091 173111 171445 -3196
832428738618773096 266451 173315 171603 -3275
832428738636987648 266854 173591 171798 -3194
832428738655202176 267153 173713 171907 -3219
832428738673416832 267423 173870 172054 -3205
832428738691631360 267608 173971 172121 -3223
832428738709846016 267844 174010 172116 -3262
832428738728060544 268219 174180 172310 -3248
832428738746275072 268673 174421 172525 -3257
832428738764489728 269299 174740 172801 -3195
832428738782704256 269599 174920 172880 -3214
832428738800918912 269478 174867 172865 -3229
832428738819133440 268774 174551 172608 -3221
832428738837348096 267939 174127 172264 -3202
832428738855562624 266878 173518 171797 -3252
832428738873777152 266058 173154 171492 -3279
832428738891991808 265683 172937 171317 -3241
832428738910206336 265590 172850 171265 -3213
832428738928420992 265867 173008 171410 -3216
832428738946635520 266348 173211 171598 -3225
832428738964850048 266827 173477 171762 -3203
832428738983064704 267242 173750 171973 -3198
832428739001279232 267460 173790 172062 -3220
832428739019493888 267552 173874 172101 -3248
832428739037708416 267714 173944 172157 -3253
832428739055923072 267930 174115 172226 -3202
832428739074137600 268377 174288 172427 -3223
832428739092352128 268950 174569 172644 -3225
832428739110566784 269448 174777 172818 -3261
832428739128781312 269437 174777 172806 -3235
832428739146995968 268996 174628 172648 -3214
832428739165210496 268301 174305 172354 -3245
832428739183425024 267343 173776 172003 -3214
832428739201639680 266409 173342 171601 -3222
832428739219854208 265787 173030 171325 -3227
832428739238068864 265434 172856 171290 -3285
832428739256283438 265614 172901 171313 -3271
832428739274496896 266100 173095 171486 -3239
832428739292710400 266551 173380 171674 -3264
832428739310923776 266989 173587 171816 -3213
832428739329137280 267390 173791 171965 -3232
832428739347350656 267591 173894 172059 -3248
832428739365564160 267818 173990 172204 -3202
832428739383777536 268070 174177 172259 -3240
832428739401991040 268415 174294 172409 -3253
832428739420204416 268840 174510 172576 -3234
832428739438417920 269266 174790 172803 -3212
832428739456631424 269496 174884 172857 -3196
832428739474844800 269216 174746 172767 -3204
832428739493058304 268493 174371 172451 -3232
832428739511271680 267615 173946 172092 -3208
832428739529485184 266662 173407 171675 -3325
832428739547698560 266119 173156 171521 -3220
832428739565912064 265750 172967 171324 -3210
832428739584125568 265794 172985 171325 -3297
832428739602338944 266062 173069 171447 -3249
832428739620552448 266480 173270 171620 -3250
832428739638765824 266813 173482 171800 -3271
832428739656979328 267134 173671 171932 -3259
832428739675192704 267440 173817 172025 -3253
832428739693406208 267656 173933 172063 -3290
832428739711619584 267907 174049 172168 -3265
832428739729833088 268222 174159 172366 -3282
832428739748046592 268779 174490 172585 -3235
832428739766259968 269332 174744 172811 -3236
832428739784473472 269550 174932 172941 -3169
832428739802686848 269335 174767 172779 -3232
832428739820900352 268674 174540 172571 -3210
832428739839113728 267766 174015 172173 -3191
832428739857327232 266916 173590 171879 -3214
832428739875540608 266235 173229 171565 -3241
832428739893754104 265821 172924 171319 -3271
832428739911968128 265770 172903 171346 -3336
832428739930182144 266013 173071 171407 -3270
832428739948396160 266451 173390 171634 -3207
832428739966610176 266981 173629 171770 -3248
832428739984824192 267330 173762 171955 -3241
832428740003038208 267517 173904 172086 -3231
832428740021252224 267610 173940 172167 -3213
832428740039466240 267737 173978 172115 -3238
832428740057680256 268141 174236 172260 -3210
832428740075894272 268591 174494 172559 -3266
832428740094108288 269196 174716 172775 -3173
832428740112322304 269597 174937 172950 -3193
832428740130536320 269527 174904 172936 -3238
832428740148750336 269141 174688 172759 -3261
832428740166964352 268334 174274 172441 -3235
832428740185178368 267299 173766 171933 -3267
832428740203392384 266460 173362 171669 -3235
832428740221606400 265910 173053 171402 -3211
832428740239820416 265716 172920 171314 -3236
