TIMESTAMP PPG0 PPG1 PPG2 AMBIENT
832428464749557888 84787 -1945 -12148 -187441
832428464767739648 84864 -1902 -12174 -187352
832428464785921536 84776 -1875 -12174 -187364
832428464804103296 84778 -1935 -12182 -187306
832428464822285184 84840 -1931 -12123 -187414
832428464840466944 84771 -1907 -12169 -187371
832428464858648832 84815 -1904 -12136 -187354
832428464876830592 84797 -1914 -12139 -187381
832428464895012480 84897 -1789 -12045 -187339
832428464913194240 84940 -1791 -12086 -187312
832428464931376128 84928 -1840 -12087 -187356
832428464949557888 84875 -1820 -12152 -187332
832428464967739648 84832 -1925 -12158 -187361
832428464985921536 84789 -2023 -12192 -187388
832428465004103296 84761 -1989 -12192 -187368
832428465022285184 84791 -1962 -12170 -187357
832428465040466944 84774 -1919 -12129 -187349
832428465058648832 84815 -1911 -12143 -187400
832428465076830592 84797 -1848 -12157 -187423
832428465095012480 84889 -1837 -12124 -187377
832428465113194240 84894 -1883 -12114 -187379
832428465131376128 84874 -1824 -12081 -187366
832428465149557888 84822 -1869 -12180 -187364
832428465167739648 84784 -1911 -12144 -187310
832428465185921536 84754 -1924 -12105 -187326
832428465204103296 84774 -1904 -12165 -187343
832428465222285184 84855 -1876 -12117 -187346
832428465240466944 84841 -1923 -12111 -187360
832428465258648832 84848 -1903 -12148 -187378
832428465276830592 84875 -1871 -12162 -187392
832428465295012480 84984 -1879 -12149 -187400
832428465313194240 84969 -1849 -12144 -187371
832428465331376128 84964 -1829 -12079 -187330
832428465349557888 84909 -1929 -12071 -187357
832428465367739648 84777 -1904 -12122 -187347
832428465385921536 84678 -1918 -12200 -187356
832428465404103296 84771 -1906 -12138 -187337
832428465422285184 84824 -1945 -12140 -187343
832428465440466944 84805 -1906 -12148 -187335
832428465458648832 84839 -1875 -12107 -187383
832428465476830592 84844 -1945 -12126 -187366
832428465495012480 85002 -1857 -12121 -187374
832428465513194240 84994 -1886 -12106 -187391
832428465531376128 84920 -1854 -12165 -187425
832428465549557888 84812 -1922 -12189 -187427
832428465567739648 84716 -1928 -12177 -187376
832428465585921598 84645 -1984 -12194 -187372
832428465604135424 84699 -1942 -12151 -187421
832428465622349312 84777 -1907 -12162 -187396
832428465640563200 84851 -1870 -12069 -187388
832428465658777088 84834 -1874 -12137 -187411
832428465676990848 84862 -1906 -12139 -187367
832428465695204736 84889 -1864 -12098 -187366
832428465713418624 84914 -1811 -12109 -187396
832428465731632512 84908 -1856 -12067 -187389
832428465749846400 84846 -1890 -12145 -187340
832428465768060288 84716 -1945 -12231 -187312
832428465786274176 84756 -1969 -12169 -187342
832428465804487936 84798 -1959 -12106 -187391
832428465822701824 84826 -1929 -12137 -187316
832428465840915712 84852 -1952 -12115 -187385
832428465859129600 84967 -1882 -12114 -187323
832428465877343488 84878 -1917 -12137 -187364
832428465895557376 85022 -1872 -12089 -187362
832428465913771136 84925 -1865 -12139 -187353
832428465931985024 84847 -1953 -12178 -187417
832428465950198912 84742 -1942 -12188 -187461
832428465968412800 84745 -1997 -12172 -187426
832428465986626688 84771 -1921 -12207 -187344
832428466004840576 84811 -1921 -12095 -187319
832428466023054464 84823 -1850 -12111 -187389
832428466041268224 84870 -1875 -12146 -187368
832428466059482112 84831 -1904 -12126 -187339
832428466077696000 84852 -1828 -12107 -187332
832428466095909888 84947 -1808 -12033 -187334
832428466114123776 84891 -1798 -12085 -187353
832428466132337664 84841 -1875 -12075 -187354
832428466150551552 84841 -1889 -12110 -187322
832428466168765312 84682 -1933 -12228 -187342
832428466186979200 84777 -1885 -12146 -187326
832428466205193088 84852 -1896 -12161 -187313
832428466223406976 84894 -1865 -12094 -187338
832428466241620864 84866 -1893 -12143 -187350
832428466259834752 84900 -1904 -12131 -187325
832428466278048640 84887 -1854 -12083 -187339
832428466296262400 84964 -1836 -12120 -187371
832428466314476288 84932 -1871 -12178 -187362
832428466332690176 84906 -1892 -12101 -187379
832428466350904096 84790 -1899 -12187 -187346
832428466369118336 84657 -1969 -12211 -187339
832428466387332608 84772 -1929 -12213 -187293
832428466405546880 84840 -1871 -12191 -187307
832428466423761152 84854 -1860 -12159 -187308
832428466441975424 84927 -1814 -12120 -187310
832428466460189696 84822 -1849 -12156 -187403
832428466478403968 84937 -1847 -12087 -187342
832428466496618240 84931 -1843 -12068 -187374
832428466514832512 84929 -1865 -12121 -187371
832428466533046784 84891 -1870 -12130 -187385
832428466551261056 84781 -1971 -12191 -187345
832428466569475456 84753 -1978 -12191 -187287
832428466587689728 84756 -1949 -12129 -187339
832428466605904000 84854 -1849 -12119 -187367
832428466624118272 84836 -1867 -12060 -187325
832428466642332544 84817 -1882 -12094 -187350
832428466660546816 84794 -1950 -12168 -187351
832428466678761088 84931 -1866 -12164 -187388
832428466696975360 84957 -1805 -12066 -187355
832428466715189632 84830 -1881 -12128 -187351
832428466733403904 84787 -1879 -12178 -187350
832428466751618176 84696 -1948 -12178 -187358
832428466769832448 84716 -1963 -12172 -187326
832428466788046720 84752 -1916 -12165 -187375
832428466806260992 84825 -1840 -12138 -187398
832428466824475264 84907 -1875 -12146 -187323
832428466842689536 84979 -1843 -12135 -187343
832428466860903808 84844 -1906 -12136 -187362
832428466879118080 84891 -1897 -12154 -187343
832428466897332352 84948 -1816 -12124 -187371
832428466915546624 84922 -1812 -12118 -187323
832428466933760896 84766 -1901 -12182 -187356
832428466951975168 84719 -1921 -12188 -187321
832428466970189568 84752 -1885 -12143 -187309
832428466988403840 84832 -1853 -12088 -187351
832428467006618112 84875 -1877 -12086 -187342
832428467024832384 84874 -1876 -12085 -187350
832428467043046656 84905 -1876 -12059 -187325
832428467061260928 84948 -1886 -12074 -187333
832428467079475200 84941 -1812 -12115 -187320
832428467097689472 84934 -1813 -12153 -187335
832428467115903744 84866 -1787 -12142 -187336
832428467134118048 84832 -1871 -12175 -187339
832428467152331520 84699 -1956 -12178 -187318
832428467170545024 84805 -1919 -12195 -187353
832428467188758528 84830 -1883 -12131 -187354
832428467206971904 84823 -1860 -12101 -187327
832428467225185408 84954 -1836 -12112 -187286
832428467243398912 84948 -1885 -12144 -187311
832428467261612416 85075 -1843 -12155 -187313
832428467279825920 85215 -1764 -12074 -187341
832428467298039424 85540 -1546 -11914 -187318
832428467316252800 85758 -1425 -11816 -187357
832428467334466304 85930 -1368 -11763 -187346
832428467352679808 86008 -1306 -11688 -187339
832428467370893312 86193 -1164 -11647 -187366
832428467389106816 86618 -959 -11437 -187354
832428467407320320 87079 -733 -11247 -187300
832428467425533696 87691 -456 -11049 -187345
832428467443747200 88142 -176 -10894 -187339
832428467461960704 88079 -162 -10898 -187310
832428467480174208 87567 -505 -11131 -187315
832428467498387712 86668 -910 -11440 -187372
832428467516601088 85612 -1485 -11825 -187364
832428467534814592 84766 -1891 -12128 -187277
832428467553028096 84165 -2281 -12446 -187371
832428467571241600 84098 -2350 -12526 -187336
832428467589455104 84301 -2261 -12381 -187324
832428467607668608 84672 -2071 -12212 -187379
832428467625881984 85138 -1758 -12002 -187394
832428467644095488 85536 -1495 -11811 -187375
832428467662308992 85902 -1340 -11744 -187371
832428467680522496 86148 -1246 -11630 -187351
832428467698736000 86341 -1113 -11613 -187324
832428467716949504 86568 -958 -11459 -187319
832428467735162880 86844 -831 -11282 -187316
832428467753376384 87366 -554 -11137 -187357
832428467771589888 87988 -294 -10889 -187308
832428467789803382 88055 -201 -10885 -187328
832428467808016384 87695 -387 -11000 -187327
832428467826229376 86929 -801 -11318 -187401
832428467844442368 85969 -1277 -11693 -187350
832428467862655360 85026 -1731 -12068 -187392
832428467880868480 84432 -2054 -12306 -187345
832428467899081472 84086 -2232 -12417 -187374
832428467917294464 84170 -2144 -12373 -187375
832428467935507456 84471 -2019 -12288 -187376
832428467953720448 85018 -1803 -12075 -187340
832428467971933440 85436 -1582 -11885 -187371
832428467990146560 85783 -1405 -11776 -187317
832428468008359552 86023 -1245 -11664 -187325
832428468026572544 86139 -1171 -11576 -187342
832428468044785536 86495 -1052 -11506 -187362
832428468062998528 86893 -826 -11304 -187340
832428468081211520 87380 -592 -11209 -187321
832428468099424512 87888 -368 -11000 -187378
832428468117637632 88052 -251 -10869 -187324
832428468135850624 87686 -374 -11095 -187400
832428468154063616 87050 -705 -11257 -187335
832428468172276608 86064 -1207 -11685 -187391
832428468190489600 85193 -1681 -11991 -187364
832428468208702592 84483 -2127 -12254 -187344
832428468226915712 84108 -2294 -12418 -187376
832428468245128704 84120 -2281 -12404 -187310
832428468263341696 84431 -2174 -12378 -187367
832428468281554688 84881 -1906 -12122 -187343
832428468299767680 85240 -1712 -12015 -187350
832428468317980672 85629 -1483 -11805 -187278
832428468336193664 85885 -1402 -11755 -187342
832428468354406784 86077 -1253 -11724 -187341
832428468372619776 86324 -1131 -11575 -187349
832428468390832768 86679 -947 -11409 -187375
832428468409045760 87200 -673 -11222 -187332
832428468427258790 87796 -347 -10968 -187307
832428468445472000 88203 -108 -10829 -187333
832428468463685248 88099 -229 -10873 -187379
832428468481898368 87369 -602 -11168 -187404
832428468500111616 86482 -1053 -11486 -187343
832428468518324736 85407 -1542 -11916 -187379
832428468536537984 84636 -2024 -12216 -187293
832428468554751104 84165 -2272 -12399 -187321
832428468572964352 83998 -2303 -12493 -187322
832428468591177472 84240 -2214 -12365 -187361
832428468609390720 84606 -2025 -12250 -187362
832428468627603840 85142 -1791 -12045 -187379
832428468645817088 85613 -1455 -11832 -187347
832428468664030208 85896 -1352 -11766 -187377
832428468682243456 86024 -1308 -11714 -187361
832428468700456576 86258 -1186 -11598 -187351
832428468718669824 86362 -1074 -11551 -187404
832428468736882944 86834 -865 -11336 -187376
832428468755096192 87440 -486 -11157 -187367
832428468773309312 87975 -255 -10932 -187358
832428468791522560 88095 -219 -10928 -187330
832428468809735680 87592 -405 -11105 -187394
832428468827948928 86825 -859 -11355 -187307
832428468846162048 85848 -1344 -11686 -187344
832428468864375296 84882 -1843 -12081 -187366
832428468882588416 84300 -2148 -12339 -187398
832428468900801664 84036 -2290 -12429 -187366
832428468919014784 84085 -2281 -12472 -187386
832428468937228032 84503 -2033 -12276 -187352
832428468955441152 84950 -1821 -12056 -187375
832428468973654400 85493 -1568 -11899 -187380
832428468991867520 85781 -1387 -11810 -187401
832428469010080768 86029 -1328 -11681 -187349
832428469028293888 86208 -1176 -11571 -187413
832428469046507136 86500 -1040 -11509 -187342
832428469064720296 86925 -857 -11388 -187321
832428469082934400 87397 -528 -11093 -187329
832428469101148544 87878 -284 -10959 -187346
832428469119362560 87977 -180 -10895 -187344
832428469137576704 87738 -380 -11022 -187403
832428469155790848 86993 -794 -11326 -187403
832428469174004864 86114 -1206 -11591 -187361
832428469192219008 85118 -1717 -12035 -187390
832428469210433152 84556 -2031 -12271 -187384
832428469228647168 84208 -2221 -12371 -187318
832428469246861312 84201 -2226 -12362 -187383
832428469265075456 84444 -2047 -12290 -187359
832428469283289472 84872 -1817 -12097 -187317
832428469301503616 85258 -1636 -11969 -187379
832428469319717760 85688 -1423 -11795 -187341
832428469337931776 85850 -1346 -11797 -187341
832428469356145920 86111 -1261 -11690 -187299
832428469374360064 86291 -1155 -11567 -187419
832428469392574080 86722 -961 -11405 -187354
832428469410788224 87191 -648 -11243 -187390
832428469429002368 87906 -288 -10942 -187310
832428469447216384 88165 -153 -10814 -187361
832428469465430528 87952 -291 -10925 -187340
832428469483644672 87306 -610 -11162 -187345
832428469501858688 86345 -1100 -11578 -187311
832428469520072832 85386 -1567 -11873 -187371
832428469538286976 84636 -2041 -12228 -187323
832428469556500992 84114 -2317 -12431 -187387
832428469574715136 84071 -2329 -12516 -187394
832428469592929280 84315 -2190 -12343 -187388
832428469611143296 84795 -1941 -12162 -187286
832428469629357440 85280 -1668 -11946 -187345
832428469647571584 85679 -1402 -11808 -187326
832428469665785600 85906 -1308 -11811 -187333
832428469683999744 86047 -1223 -11715 -187344
832428469702213850 86192 -1191 -11631 -187373
832428469720427008 86554 -1028 -11507 -187374
832428469738640128 86978 -771 -11318 -187411
832428469756853248 87538 -478 -11065 -187391
832428469775066496 87962 -286 -10919 -187381
832428469793279616 88081 -196 -10882 -187386
832428469811492736 87587 -433 -11078 -187386
832428469829705856 86760 -867 -11380 -187374
832428469847918976 85788 -1364 -11750 -187350
832428469866132096 84900 -1868 -12128 -187341
832428469884345344 84279 -2226 -12357 -187362
832428469902558464 83952 -2337 -12483 -187378
832428469920771584 84066 -2276 -12407 -187373
832428469938984704 84575 -2007 -12239 -187390
832428469957197824 85012 -1795 -12121 -187377
832428469975410944 85488 -1549 -11936 -187397
832428469993624192 85805 -1376 -11780 -187417
832428470011837312 86152 -1287 -11682 -187454
832428470030050432 86343 -1096 -11562 -187339
832428470048263552 86579 -994 -11461 -187394
832428470066476672 86889 -814 -11366 -187350
832428470084689920 87375 -564 -11147 -187330
832428470102903040 87966 -368 -10976 -187316
832428470121116160 88060 -237 -10935 -187418
832428470139329280 87705 -382 -11062 -187380
832428470157542400 86959 -740 -11304 -187324
832428470175755520 86042 -1267 -11731 -187355
832428470193968768 85067 -1738 -12125 -187402
832428470212181888 84429 -2123 -12375 -187415
832428470230395008 84077 -2296 -12428 -187386
832428470248608128 84106 -2215 -12361 -187370
832428470266821248 84418 -2122 -12323 -187384
832428470285034368 84836 -1934 -12159 -187404
832428470303247616 85335 -1693 -11968 -187392
832428470321460736 85728 -1516 -11815 -187394
832428470339673836 85949 -1356 -11707 -187325
832428470357887104 86161 -1243 -11702 -187305
832428470376100352 86364 -1045 -11642 -187338
832428470394313600 86755 -840 -11410 -187376
832428470412526976 87330 -631 -11234 -187368
832428470430740224 87882 -340 -11014 -187362
832428470448953472 88096 -213 -10901 -187390
832428470467166720 87874 -317 -10953 -187366
832428470485379968 87025 -721 -11290 -187366
832428470503593344 86193 -1152 -11574 -187383
832428470521806592 85268 -1695 -11999 -187366
832428470540019840 84571 -1968 -12223 -187353
832428470558233088 84067 -2293 -12405 -187354
832428470576446336 83974 -2285 -12454 -187381
832428470594659712 84394 -2138 -12334 -187352
832428470612872960 84966 -1865 -12098 -187259
832428470631086208 85324 -1613 -11972 -187353
832428470649299456 85695 -1477 -11811 -187340
832428470667512704 85876 -1348 -11734 -187355
832428470685726080 85991 -1241 -11714 -187329
832428470703939328 86273 -1105 -11612 -187371
832428470722152576 86623 -874 -11441 -187361
832428470740365824 87170 -742 -11281 -187333
832428470758579072 87658 -429 -11042 -187304
832428470776792448 88110 -173 -10844 -187361
832428470795005696 88165 -196 -10844 -187353
832428470813218944 87552 -439 -11046 -187327
832428470831432192 86636 -895 -11390 -187333
832428470849645440 85538 -1480 -11839 -187353
832428470867858816 84641 -1935 -12171 -187349
832428470886072064 84067 -2250 -12381 -187369
832428470904285312 83888 -2382 -12475 -187379
832428470922498560 84156 -2225 -12380 -187360
832428470940711808 84608 -2063 -12259 -187347
832428470958925184 85126 -1770 -12044 -187361
832428470977138400 85564 -1572 -11887 -187404
832428470995352320 85950 -1330 -11711 -187328
832428471013566208 86157 -1258 -11630 -187354
832428471031780096 86264 -1136 -11568 -187369
832428471049993984 86502 -1058 -11426 -187323
832428471068207872 86829 -819 -11303 -187342
832428471086421760 87371 -570 -11152 -187395
832428471104635648 87928 -261 -10901 -187396
832428471122849536 88064 -204 -10885 -187341
832428471141063424 87691 -412 -11101 -187321
832428471159277312 86888 -782 -11356 -187337
832428471177491200 85898 -1329 -11738 -187337
832428471195705088 85045 -1770 -12028 -187385
832428471213918976 84444 -2122 -12256 -187400
832428471232132864 84113 -2277 -12343 -187310
832428471250346624 84114 -2307 -12420 -187387
832428471268560512 84396 -2110 -12313 -187328
832428471286774400 84869 -1845 -12143 -187363
832428471304988288 85389 -1597 -11931 -187369
832428471323202176 85650 -1455 -11866 -187435
832428471341416064 85978 -1323 -11722 -187356
832428471359629952 86154 -1193 -11577 -187355
832428471377843840 86476 -1051 -11532 -187333
832428471396057728 86920 -861 -11391 -187393
832428471414271616 87313 -502 -11136 -187364
832428471432485504 87850 -324 -10923 -187350
832428471450699392 88012 -201 -10902 -187306
832428471468913280 87788 -346 -11013 -187336
832428471487127168 87121 -744 -11305 -187298
832428471505341056 86243 -1155 -11598 -187345
832428471523554944 85292 -1683 -11938 -187352
832428471541768832 84532 -2074 -12291 -187406
832428471559982720 84106 -2332 -12439 -187384
832428471578196608 84136 -2265 -12400 -187354
832428471596410496 84451 -2080 -12298 -187349
832428471614624318 84887 -1833 -12105 -187367
832428471632835712 85262 -1645 -11907 -187344
832428471651047168 85633 -1463 -11763 -187308
832428471669258496 85810 -1398 -11747 -187443
832428471687469952 86029 -1226 -11600 -187412
832428471705681280 86316 -1137 -11515 -187344
832428471723892736 86704 -903 -11358 -187364
832428471742104064 87166 -678 -11266 -187376
832428471760315520 87719 -385 -11064 -187334
832428471778526848 88121 -151 -10923 -187327
832428471796738304 88049 -208 -10874 -187328
832428471814949760 87471 -498 -11124 -187369
832428471833161088 86489 -1058 -11496 -187368
832428471851372544 85409 -1583 -11931 -187371
832428471869583872 84593 -2062 -12277 -187380
832428471887795328 84145 -2289 -12447 -187362
832428471906006656 83987 -2323 -12486 -187345
832428471924218112 84243 -2154 -12353 -187340
832428471942429440 84602 -1997 -12249 -187366
832428471960640896 85233 -1662 -11966 -187324
832428471978852224 85674 -1425 -11834 -187305
832428471997063680 85932 -1288 -11755 -187395
832428472015275136 86075 -1269 -11680 -187366
832428472033486464 86273 -1156 -11610 -187323
832428472051697920 86466 -1066 -11474 -187346
832428472069909248 86922 -770 -11320 -187354
832428472088120704 87464 -435 -11125 -187366
832428472106332032 88067 -200 -10857 -187361
832428472124543488 88099 -144 -10883 -187376
832428472142754816 87573 -459 -11074 -187400
832428472160966272 86781 -825 -11337 -187335
832428472179177728 85860 -1417 -11719 -187396
832428472197389056 85088 -1817 -12015 -187380
832428472215600512 84317 -2242 -12350 -187391
832428472233811840 83979 -2327 -12420 -187349
832428472252023268 83975 -2349 -12437 -187316
832428472270237312 84473 -2129 -12301 -187363
832428472288451328 85011 -1830 -12088 -187334
832428472306665344 85418 -1566 -11889 -187392
832428472324879360 85843 -1350 -11730 -187339
832428472343093376 86055 -1237 -11675 -187344
832428472361307392 86187 -1241 -11681 -187337
832428472379521408 86467 -1065 -11508 -187356
832428472397735424 86883 -860 -11376 -187346
832428472415949440 87350 -511 -11164 -187379
832428472434163456 87778 -342 -11027 -187317
832428472452377472 87949 -271 -10977 -187369
832428472470591488 87730 -369 -11038 -187352
832428472488805504 87102 -708 -11330 -187329
832428472507019520 86196 -1217 -11647 -187285
832428472525233536 85144 -1760 -11990 -187338
832428472543447552 84495 -2041 -12260 -187310
832428472561661568 84268 -2173 -12366 -187286
832428472579875584 84237 -2162 -12365 -187303
832428472598089600 84490 -2046 -12244 -187322
832428472616303616 84879 -1836 -12093 -187327
832428472634517632 85299 -1683 -11961 -187298
832428472652731648 85611 -1481 -11821 -187310
832428472670945664 85839 -1329 -11780 -187349
832428472689159680 86036 -1205 -11600 -187395
832428472707373696 86363 -1055 -11526 -187298
832428472725587712 86728 -959 -11353 -187346
832428472743801728 87123 -640 -11156 -187299
832428472762015744 87855 -334 -10952 -187366
832428472780229760 88202 -158 -10889 -187373
832428472798443776 88057 -154 -10903 -187321
832428472816657792 87365 -550 -11218 -187342
832428472834871808 86300 -1088 -11586 -187349
832428472853085824 85308 -1696 -11997 -187346
832428472871299840 84592 -2057 -12299 -187364
832428472889513772 84127 -2238 -12398 -187352
832428472907727616 84032 -2306 -12426 -187376
832428472925941504 84340 -2144 -12291 -187332
832428472944155392 84723 -1957 -12181 -187369
832428472962369280 85249 -1689 -11935 -187353
832428472980583168 85658 -1460 -11805 -187385
832428472998797056 85930 -1335 -11738 -187366
832428473017010944 86127 -1219 -11666 -187344
832428473035224832 86183 -1153 -11614 -187321
832428473053438720 86506 -1034 -11504 -187357
832428473071652608 86967 -772 -11303 -187295
832428473089866496 87573 -490 -11049 -187311
832428473108080384 88010 -183 -10905 -187360
832428473126294272 88036 -175 -10937 -187405
832428473144508160 87538 -521 -11097 -187438
832428473162722048 86842 -857 -11323 -187351
832428473180935808 85822 -1364 -11719 -187343
832428473199149696 84858 -1841 -12051 -187359
832428473217363584 84209 -2171 -12266 -187283
832428473235577472 83967 -2338 -12435 -187290
832428473253791360 84120 -2284 -12442 -187291
832428473272005248 84575 -2045 -12243 -187301
832428473290219136 85019 -1789 -12095 -187329
832428473308433024 85486 -1555 -11885 -187341
832428473326646912 85865 -1327 -11733 -187335
832428473344860800 86051 -1231 -11644 -187385
832428473363074688 86296 -1157 -11541 -187343
832428473381288576 86559 -990 -11408 -187332
832428473399502464 86904 -743 -11298 -187330
832428473417716352 87433 -500 -11100 -187341
832428473435930240 87864 -291 -11004 -187367
832428473454144128 88061 -258 -10945 -187355
832428473472358016 87769 -287 -11010 -187321
832428473490571904 87049 -720 -11274 -187402
832428473508785792 86070 -1203 -11617 -187319
832428473526999698 85152 -1717 -11985 -187291
832428473545212160 84498 -2073 -12270 -187422
832428473563424640 84171 -2314 -12376 -187383
832428473581636992 84227 -2209 -12329 -187386
832428473599849472 84430 -2059 -12237 -187332
832428473618061824 84814 -1907 -12135 -187333
832428473636274304 85324 -1681 -11914 -187302
832428473654486656 85734 -1439 -11832 -187282
832428473672699136 85946 -1311 -11669 -187304
832428473690911488 86188 -1150 -11613 -187352
832428473709123968 86410 -1080 -11552 -187385
832428473727336320 86765 -916 -11313 -187374
832428473745548800 87270 -615 -11123 -187378
832428473763761280 87923 -306 -10907 -187346
832428473781973632 88176 -142 -10863 -187327
832428473800186112 87953 -299 -10929 -187349
832428473818398464 87210 -664 -11218 -187304
832428473836610944 86271 -1165 -11574 -187322
832428473854823296 85360 -1632 -11891 -187320
832428473873035776 84618 -2101 -12216 -187296
832428473891248128 84072 -2239 -12393 -187381
832428473909460608 84081 -2325 -12455 -187316
832428473927672960 84396 -2143 -12339 -187371
832428473945885440 84878 -1894 -12141 -187334
832428473964097920 85279 -1722 -11980 -187395
832428473982310272 85737 -1405 -11804 -187383
832428474000522752 85946 -1316 -11673 -187324
832428474018735104 85975 -1273 -11632 -187372
832428474036947584 86207 -1192 -11558 -187351
832428474055159936 86511 -1029 -11403 -187333
832428474073372416 87038 -768 -11285 -187334
832428474091584768 87697 -393 -11001 -187300
832428474109797248 88139 -184 -10827 -187341
832428474128009600 88181 -202 -10880 -187311
832428474146222080 87691 -443 -11067 -187295
832428474164434560 86718 -934 -11440 -187362
832428474182646878 85640 -1405 -11839 -187377
832428474200859392 84771 -1885 -12094 -187336
832428474219071872 84177 -2219 -12367 -187309
832428474237284480 83962 -2384 -12414 -187375
832428474255496960 84184 -2261 -12366 -187401
832428474273709568 84637 -1990 -12166 -187324
832428474291922048 85125 -1772 -12033 -187372
832428474310134528 85623 -1483 -11822 -187403
832428474328347136 85982 -1323 -11670 -187349
832428474346559616 86140 -1183 -11564 -187302
832428474364772224 86240 -1202 -11561 -187359
832428474382984704 86495 -1086 -11495 -187384
832428474401197184 86853 -848 -11347 -187375
832428474419409792 87374 -576 -11128 -187323
832428474437622272 87860 -312 -10995 -187400
832428474455834880 88032 -170 -10906 -187351
832428474474047360 87694 -345 -11076 -187408
832428474492259968 87004 -716 -11302 -187324
832428474510472448 85970 -1244 -11717 -187364
832428474528684928 85085 -1754 -12010 -187350
832428474546897536 84454 -2074 -12207 -187333
832428474565110016 84142 -2230 -12350 -187320
832428474583322624 84226 -2210 -12296 -187277
832428474601535104 84423 -2085 -12244 -187343
832428474619747584 84897 -1873 -12131 -187346
832428474637960192 85420 -1606 -11989 -187337
832428474656172672 85770 -1416 -11810 -187341
832428474674385280 86034 -1216 -11681 -187360
832428474692597760 86186 -1168 -11635 -187347
832428474710810240 86427 -1014 -11508 -187316
832428474729022848 86883 -774 -11324 -187318
832428474747235328 87435 -526 -11158 -187332
832428474765447936 87960 -265 -10942 -187377
832428474783660416 88125 -143 -10875 -187329
832428474801872896 87817 -286 -10964 -187371
832428474820085500 87107 -690 -11273 -187385
832428474838297984 86188 -1167 -11586 -187336
832428474856510464 85296 -1631 -11946 -187277
832428474874722944 84599 -2028 -12158 -187362
832428474892935424 84198 -2293 -12414 -187332
832428474911147904 84165 -2264 -12378 -187355
832428474929360384 84508 -2089 -12276 -187313
832428474947572864 84940 -1858 -12083 -187302
832428474965785344 85409 -1616 -11926 -187316
832428474983997952 85710 -1439 -11769 -187318
832428475002210432 85915 -1287 -11679 -187283
832428475020422912 86070 -1263 -11653 -187336
832428475038635392 86342 -1081 -11503 -187323
832428475056847872 86600 -918 -11430 -187316
832428475075060352 87168 -680 -11243 -187381
832428475093272832 87800 -324 -10984 -187311
832428475111485312 88322 -103 -10799 -187286
832428475129697792 88152 -187 -10911 -187344
832428475147910272 87482 -555 -11158 -187401
832428475166122752 86631 -1052 -11471 -187327
832428475184335232 85588 -1507 -11816 -187329
832428475202547712 84644 -1939 -12199 -187374
832428475220760192 84165 -2266 -12432 -187356
832428475238972672 84042 -2354 -12462 -187318
832428475257185280 84269 -2181 -12390 -187347
832428475275397760 84711 -1938 -12193 -187341
832428475293610240 85190 -1643 -12005 -187338
832428475311822720 85636 -1351 -11781 -187329
832428475330035200 85949 -1306 -11704 -187309
832428475348247680 86190 -1173 -11625 -187326
832428475366460160 86261 -1116 -11583 -187321
832428475384672640 86517 -958 -11507 -187289
832428475402885120 86822 -748 -11328 -187296
832428475421097600 87465 -525 -11167 -187306
832428475439310080 87968 -264 -10946 -187318
832428475457522598 88073 -163 -10877 -187358
832428475475734912 87646 -374 -11015 -187322
832428475493947264 86925 -793 -11304 -187355
832428475512159488 85981 -1286 -11692 -187332
832428475530371840 85043 -1794 -12010 -187356
832428475548584192 84322 -2128 -12303 -187384
832428475566796544 83972 -2338 -12388 -187406
832428475585008768 84103 -2296 -12373 -187367
832428475603221120 84437 -2023 -12248 -187368
832428475621433472 84957 -1794 -12110 -187354
832428475639645696 85440 -1547 -11889 -187341
832428475657858048 85817 -1356 -11789 -187319
832428475676070400 86080 -1226 -11674 -187349
832428475694282624 86153 -1218 -11651 -187368
832428475712494976 86547 -989 -11496 -187350
832428475730707328 86866 -837 -11363 -187396
832428475748919680 87322 -594 -11208 -187400
832428475767131904 87900 -270 -11018 -187311
832428475785344256 87968 -247 -10962 -187357
832428475803556608 87728 -452 -11091 -187352
832428475821768832 87052 -716 -11260 -187398
832428475839981184 86114 -1253 -11708 -187407
832428475858193536 85189 -1739 -12020 -187404
832428475876405760 84504 -2085 -12358 -187405
832428475894618112 84220 -2312 -12419 -187370
832428475912830464 84188 -2306 -12388 -187387
832428475931042816 84474 -2056 -12263 -187321
832428475949255040 84886 -1849 -12127 -187378
832428475967467392 85319 -1632 -11980 -187346
832428475985679744 85553 -1482 -11869 -187340
832428476003891968 85912 -1372 -11730 -187321
832428476022104320 86141 -1244 -11668 -187330
832428476040316672 86336 -1158 -11627 -187404
832428476058529024 86718 -935 -11439 -187397
832428476076741248 87135 -733 -11351 -187346
832428476094953592 87814 -316 -11051 -187343
832428476113164544 88255 -80 -10837 -187357
832428476131375488 88011 -188 -10954 -187345
832428476149586432 87322 -590 -11141 -187377
832428476167797248 86348 -1075 -11535 -187313
832428476186008192 85293 -1624 -11946 -187339
832428476204219136 84494 -1963 -12245 -187357
832428476222430080 84084 -2280 -12438 -187377
832428476240641024 83965 -2364 -12439 -187383
832428476258851840 84217 -2273 -12444 -187362
832428476277062784 84678 -2060 -12249 -187369
832428476295273728 85291 -1732 -12018 -187431
832428476313484672 85700 -1461 -11794 -187390
832428476331695616 85951 -1376 -11738 -187351
832428476349906432 86021 -1249 -11698 -187386
832428476368117376 86213 -1211 -11592 -187349
832428476386328320 86498 -1069 -11535 -187336
832428476404539264 86936 -831 -11358 -187391
832428476422750208 87547 -506 -11168 -187393
832428476440961024 87996 -219 -10933 -187343
832428476459171968 88065 -156 -10889 -187342
832428476477382912 87560 -430 -11079 -187407
832428476495593856 86759 -814 -11407 -187427
832428476513804800 85819 -1362 -11798 -187400
832428476532015616 84932 -1815 -12064 -187347
832428476550226560 84272 -2120 -12378 -187340
832428476568437504 83857 -2399 -12492 -187374
832428476586648448 84118 -2230 -12415 -187339
832428476604859392 84565 -2076 -12232 -187368
832428476623070208 85002 -1791 -12057 -187313
832428476641281152 85471 -1561 -11913 -187404
832428476659492096 85886 -1388 -11752 -187381
832428476677703040 86037 -1294 -11697 -187366
832428476695913984 86235 -1207 -11626 -187361
832428476714124800 86538 -977 -11465 -187351
832428476732335748 86856 -885 -11372 -187383
832428476750548864 87306 -596 -11191 -187397
832428476768761984 87790 -328 -11005 -187361
832428476786975104 88059 -230 -10907 -187325
832428476805188224 87796 -403 -11062 -187335
832428476823401216 87075 -763 -11323 -187368
832428476841614336 86145 -1271 -11680 -187356
832428476859827456 85223 -1713 -12035 -187379
832428476878040576 84627 -2091 -12260 -187341
832428476896253696 84191 -2241 -12394 -187368
832428476914466816 84204 -2191 -12363 -187372
832428476932679808 84472 -2087 -12305 -187369
832428476950892928 84890 -1818 -12142 -187381
832428476969106048 85310 -1613 -11985 -187401
832428476987319168 85764 -1440 -11836 -187372
832428477005532288 85984 -1317 -11673 -187340
832428477023745408 86221 -1204 -11632 -187320
832428477041958400 86361 -1089 -11554 -187374
832428477060171520 86725 -891 -11398 -187318
832428477078384640 87380 -592 -11200 -187333
832428477096597760 87906 -310 -10937 -187341
832428477114810880 88156 -122 -10829 -187368
832428477133024000 87890 -194 -10962 -187393
832428477151236992 87238 -621 -11191 -187327
832428477169450112 86167 -1126 -11574 -187372
832428477187663232 85324 -1627 -11994 -187321
832428477205876352 84570 -1989 -12215 -187343
832428477224089472 84157 -2304 -12461 -187383
832428477242302592 84051 -2245 -12454 -187326
832428477260515584 84300 -2099 -12379 -187363
832428477278728704 84802 -1813 -12118 -187338
832428477296941824 85305 -1597 -11907 -187378
832428477315154944 85676 -1422 -11769 -187343
832428477333368064 85885 -1288 -11663 -187298
832428477351581184 85949 -1290 -11726 -187388
832428477369794210 86191 -1210 -11622 -187334
832428477388007296 86572 -1070 -11465 -187339
832428477406220416 87053 -727 -11223 -187342
832428477424433536 87518 -442 -11059 -187376
832428477442646784 87980 -209 -10851 -187363
832428477460859904 87941 -298 -10899 -187339
832428477479073024 87503 -466 -11081 -187421
832428477497286144 86664 -937 -11454 -187345
832428477515499264 85683 -1412 -11811 -187384
832428477533712384 84794 -1932 -12202 -187370
832428477551925632 84176 -2249 -12447 -187401
832428477570138752 83969 -2343 -12509 -187356
832428477588351872 84200 -2299 -12443 -187402
832428477606564992 84642 -2017 -12239 -187355
832428477624778112 85115 -1772 -12073 -187343
832428477642991232 85580 -1511 -11835 -187327
832428477661204480 85859 -1374 -11718 -187356
832428477679417600 86186 -1233 -11612 -187350
832428477697630720 86294 -1095 -11606 -187375
832428477715843840 86621 -955 -11508 -187296
832428477734056960 86987 -737 -11349 -187347
832428477752270208 87436 -515 -11173 -187315
832428477770483328 87946 -249 -10892 -187311
832428477788696448 88086 -166 -10909 -187337
832428477806909568 87742 -340 -11021 -187353
832428477825122688 86976 -737 -11319 -187364
832428477843335808 85935 -1309 -11700 -187385
832428477861549056 85113 -1701 -12005 -187306
832428477879762176 84497 -2018 -12266 -187333
832428477897975296 84153 -2252 -12421 -187309
832428477916188416 84121 -2256 -12426 -187380
832428477934401536 84377 -2120 -12288 -187374
832428477952614656 84809 -1883 -12211 -187351
832428477970827904 85279 -1600 -11948 -187378
832428477989041024 85786 -1363 -11786 -187324
832428478007254196 85982 -1306 -11690 -187345
832428478025467264 86137 -1185 -11629 -187367
832428478043680384 86415 -1074 -11504 -187366
832428478061893504 86889 -817 -11265 -187329
832428478080106752 87349 -563 -11115 -187367
832428478098319872 88010 -180 -10816 -187308
832428478116532992 88141 -124 -10860 -187357
832428478134746112 87861 -293 -10949 -187379
832428478152959232 87100 -730 -11283 -187357
832428478171172352 86250 -1184 -11555 -187296
832428478189385600 85368 -1641 -11868 -187298
832428478207598720 84660 -1983 -12142 -187332
832428478225811840 84150 -2253 -12437 -187333
832428478244024960 84123 -2281 -12420 -187351
832428478262238080 84491 -2079 -12272 -187347
832428478280451200 84954 -1772 -12080 -187329
832428478298664448 85408 -1591 -11959 -187406
832428478316877568 85733 -1428 -11731 -187350
832428478335090688 85871 -1376 -11710 -187340
832428478353303808 86051 -1205 -11594 -187298
832428478371516928 86295 -1150 -11564 -187312
832428478389730176 86745 -915 -11407 -187345
832428478407943296 87187 -699 -11175 -187327
832428478426156416 87678 -408 -11042 -187340
832428478444369536 88081 -149 -10849 -187360
832428478462582656 88095 -187 -10861 -187385
832428478480795776 87452 -528 -11055 -187327
832428478499009024 86560 -1002 -11457 -187357
832428478517222144 85555 -1515 -11884 -187325
832428478535435264 84712 -1996 -12248 -187336
832428478553648384 84258 -2241 -12463 -187344
832428478571861504 84078 -2309 -12454 -187355
832428478590074624 84259 -2136 -12276 -187380
832428478608287872 84669 -1953 -12134 -187350
832428478626500992 85182 -1690 -11981 -187357
832428478644714112 85643 -1495 -11828 -187354
832428478662927324 85939 -1355 -11665 -187372
832428478681140480 86104 -1227 -11668 -187441
832428478699353600 86278 -1184 -11556 -187353
832428478717566720 86536 -983 -11510 -187374
832428478735779968 86808 -860 -11388 -187371
832428478753993088 87366 -497 -11153 -187421
832428478772206208 87988 -229 -10908 -187391
832428478790419328 88093 -279 -10910 -187387
832428478808632448 87663 -469 -11061 -187374
832428478826845568 86933 -780 -11321 -187357
832428478845058816 85935 -1302 -11694 -187375
832428478863271936 85051 -1785 -12060 -187323
832428478881485056 84454 -2080 -12329 -187343
832428478899698176 84089 -2293 -12464 -187374
832428478917911296 84188 -2273 -12405 -187361
832428478936124416 84425 -2121 -12305 -187379
832428478954337664 84924 -1808 -12154 -187407
832428478972550784 85459 -1577 -11899 -187323
832428478990763904 85826 -1413 -11788 -187345
832428479008977024 85998 -1240 -11647 -187356
832428479027190144 86235 -1135 -11614 -187349
832428479045403392 86478 -1036 -11513 -187353
832428479063616512 86859 -795 -11361 -187393
832428479081829632 87287 -617 -11226 -187360
832428479100042752 87860 -298 -10971 -187403
832428479118255872 88031 -218 -10933 -187356
832428479136468992 87808 -389 -11017 -187366
832428479154682240 87072 -717 -11312 -187388
832428479172895360 86199 -1180 -11581 -187371
832428479191108480 85265 -1648 -11982 -187310
832428479209321600 84599 -1990 -12278 -187352
832428479227534720 84193 -2187 -12387 -187308
832428479245747840 84203 -2196 -12394 -187312
832428479263961088 84471 -2028 -12242 -187312
832428479282174208 84909 -1825 -12112 -187346
832428479300387310 85354 -1612 -11970 -187406
832428479318601088 85656 -1464 -11828 -187385
832428479336814848 85852 -1393 -11766 -187357
832428479355028736 86008 -1266 -11678 -187397
832428479373242496 86322 -1152 -11578 -187375
832428479391456256 86736 -947 -11401 -187363
832428479409670016 87142 -643 -11291 -187411
832428479427883904 87742 -311 -11029 -187336
832428479446097664 88164 -152 -10810 -187341
832428479464311424 88023 -182 -10952 -187322
832428479482525312 87367 -549 -11168 -187321
832428479500739072 86463 -1010 -11497 -187307
832428479518952832 85350 -1582 -11891 -187299
832428479537166592 84616 -2034 -12208 -187344
832428479555380480 84148 -2280 -12334 -187352
832428479573594240 84085 -2313 -12357 -187329
832428479591808000 84297 -2179 -12325 -187334
832428479610021888 84734 -1966 -12157 -187360
832428479628235648 85323 -1661 -11935 -187332
832428479646449408 85672 -1432 -11762 -187335
832428479664663168 85951 -1319 -11700 -187340
832428479682877056 86074 -1229 -11673 -187328
832428479701090816 86233 -1147 -11590 -187318
832428479719304576 86498 -1026 -11503 -187295
832428479737518464 86969 -866 -11320 -187371
832428479755732224 87494 -519 -11136 -187313
832428479773945984 88068 -145 -10915 -187326
832428479792159744 88125 -183 -10905 -187335
832428479810373632 87560 -378 -11120 -187402
832428479828587392 86869 -783 -11344 -187345
832428479846801152 85838 -1344 -11760 -187369
832428479865014912 84967 -1815 -12140 -187328
832428479883228800 84333 -2136 -12343 -187370
832428479901442560 84016 -2231 -12477 -187347
832428479919656320 84105 -2211 -12459 -187372
832428479937870178 84585 -2024 -12331 -187322
832428479956083584 85085 -1752 -12096 -187384
832428479974296960 85537 -1569 -11908 -187370
832428479992510336 85835 -1327 -11746 -187332
832428480010723712 86081 -1210 -11665 -187372
832428480028937088 86309 -1071 -11574 -187359
832428480047150336 86581 -998 -11486 -187402
832428480065363712 86891 -771 -11354 -187342
832428480083577088 87414 -522 -11102 -187292
832428480101790464 87839 -339 -10946 -187339
832428480120003840 88015 -210 -10908 -187315
832428480138217216 87701 -415 -11070 -187354
832428480156430592 87097 -802 -11286 -187345
832428480174643968 86150 -1307 -11678 -187379
832428480192857216 85182 -1710 -11973 -187324
832428480211070592 84479 -2082 -12249 -187362
832428480229283968 84194 -2180 -12360 -187345
832428480247497344 84137 -2258 -12443 -187409
832428480265710720 84379 -2082 -12290 -187393
832428480283924096 84862 -1828 -12083 -187341
832428480302137472 85369 -1599 -11941 -187379
832428480320350848 85660 -1438 -11821 -187358
832428480338564096 85913 -1423 -11725 -187371
832428480356777472 86125 -1240 -11644 -187324
832428480374990848 86405 -1066 -11572 -187359
832428480393204224 86763 -919 -11418 -187371
832428480411417600 87265 -652 -11256 -187371
832428480429630976 87906 -273 -10943 -187350
832428480447844352 88119 -167 -10906 -187356
832428480466057728 87923 -264 -10903 -187317
832428480484270976 87216 -584 -11178 -187344
832428480502484352 86169 -1161 -11589 -187347
832428480520697728 85316 -1599 -11976 -187349
832428480538911104 84636 -2064 -12256 -187377
832428480557124480 84089 -2320 -12424 -187371
832428480575337792 84036 -2303 -12472 -187409
832428480593551104 84372 -2194 -12339 -187384
832428480611764480 84926 -1851 -12127 -187364
832428480629977856 85314 -1688 -11983 -187313
832428480648191232 85661 -1458 -11832 -187324
832428480666404608 85927 -1361 -11730 -187319
832428480684617856 86057 -1275 -11719 -187366
832428480702831232 86106 -1169 -11624 -187357
832428480721044608 86524 -1006 -11555 -187340
832428480739257984 86988 -789 -11304 -187327
832428480757471360 87583 -439 -11085 -187370
832428480775684736 88064 -143 -10876 -187379
832428480793898112 88117 -164 -10868 -187270
832428480812111488 87656 -392 -11054 -187346
832428480830324736 86807 -883 -11394 -187345
832428480848538112 85683 -1481 -11807 -187367
832428480866751488 84779 -1890 -12108 -187356
832428480884964864 84203 -2299 -12366 -187368
832428480903178240 84011 -2420 -12469 -187341
832428480921391616 84241 -2223 -12327 -187329
832428480939604992 84574 -2016 -12259 -187393
832428480957818368 85168 -1751 -12019 -187330
832428480976031616 85624 -1446 -11864 -187340
832428480994244992 85854 -1323 -11749 -187315
832428481012458368 86115 -1212 -11595 -187334
832428481030671744 86209 -1214 -11663 -187322
832428481048885120 86456 -1021 -11490 -187381
832428481067098496 86707 -881 -11460 -187418
832428481085311872 87265 -578 -11245 -187406
832428481103525248 87867 -244 -10984 -187354
832428481121738496 88021 -232 -10942 -187359
832428481139951872 87664 -373 -11101 -187400
832428481158165248 86923 -742 -11371 -187413
832428481176378624 85932 -1302 -11745 -187389
832428481194592000 85128 -1791 -12039 -187419
832428481212805408 84420 -2128 -12310 -187428
832428481231018240 84094 -2247 -12433 -187384
832428481249231104 84136 -2276 -12397 -187347
832428481267444096 84414 -2085 -12290 -187396
832428481285656960 84779 -1859 -12174 -187394
832428481303869952 85315 -1653 -11953 -187375
832428481322082816 85710 -1483 -11818 -187363
832428481340295808 85879 -1375 -11697 -187359
832428481358508672 86103 -1238 -11616 -187412
832428481376721664 86310 -1050 -11572 -187414
832428481394934528 86845 -860 -11426 -187414
832428481413147520 87438 -535 -11117 -187366
832428481431360384 87923 -261 -10962 -187388
832428481449573376 88038 -171 -10947 -187372
832428481467786240 87866 -362 -10996 -187336
832428481485999232 87074 -694 -11309 -187408
832428481504212096 86157 -1175 -11699 -187428
832428481522425088 85256 -1647 -12025 -187350
832428481540637952 84438 -2068 -12311 -187415
832428481558850944 84079 -2313 -12428 -187357
832428481577063808 84072 -2298 -12376 -187358
832428481595276672 84427 -2221 -12315 -187396
832428481613489664 84895 -1859 -12140 -187394
832428481631702528 85275 -1663 -11926 -187370
832428481649915520 85575 -1524 -11909 -187414
832428481668128384 85769 -1412 -11810 -187362
832428481686341376 86033 -1355 -11734 -187367
832428481704554240 86326 -1140 -11636 -187346
832428481722767232 86692 -988 -11484 -187333
832428481740980096 87084 -785 -11276 -187402
832428481759193088 87659 -463 -11094 -187452
832428481777405952 88115 -190 -10880 -187357
832428481795618944 88096 -173 -10933 -187425
832428481813831808 87526 -494 -11130 -187340
832428481832044800 86616 -953 -11430 -187344
832428481850257764 85583 -1530 -11858 -187395
832428481868470272 84642 -2040 -12231 -187410
832428481886682752 84077 -2277 -12429 -187386
832428481904895232 84013 -2303 -12509 -187405
832428481923107712 84262 -2281 -12409 -187422
832428481941320192 84676 -2038 -12212 -187336
832428481959532672 85060 -1778 -12135 -187379
832428481977745152 85532 -1506 -11882 -187346
832428481995957632 85929 -1368 -11759 -187377
832428482014170240 86019 -1339 -11686 -187397
832428482032382720 86227 -1192 -11567 -187371
832428482050595200 86479 -1003 -11509 -187376
832428482068807680 86912 -812 -11350 -187371
832428482087020160 87436 -563 -11213 -187442
832428482105232640 87874 -258 -11071 -187396
832428482123445120 88063 -192 -10901 -187333
832428482141657600 87694 -325 -11074 -187328
832428482159870080 86889 -765 -11354 -187345
832428482178082560 85943 -1323 -11778 -187355
832428482196295040 85172 -1727 -12006 -187311
832428482214507520 84487 -2071 -12293 -187426
832428482232720000 84061 -2308 -12473 -187412
832428482250932480 84110 -2245 -12414 -187428
832428482269144960 84411 -2118 -12322 -187373
832428482287357440 84930 -1811 -12142 -187366
832428482305570048 85374 -1570 -11973 -187387
832428482323782528 85792 -1377 -11811 -187386
832428482341995008 85975 -1386 -11782 -187434
832428482360207488 86199 -1244 -11640 -187422
832428482378419968 86545 -1035 -11522 -187337
832428482396632448 86916 -835 -11363 -187392
832428482414844928 87384 -597 -11211 -187392
832428482433057408 87906 -285 -10968 -187361
832428482451269888 88052 -236 -10953 -187374
832428482469482368 87704 -382 -11031 -187371
832428482487694852 87121 -664 -11257 -187374
832428482505906944 86257 -1160 -11607 -187423
832428482524119040 85262 -1669 -11989 -187414
832428482542331136 84553 -1986 -12246 -187385
832428482560543232 84179 -2245 -12373 -187318
832428482578755328 84191 -2264 -12346 -187412
832428482596967296 84494 -2081 -12278 -187378
832428482615179392 84928 -1836 -12138 -187362
832428482633391488 85330 -1607 -11931 -187342
832428482651603584 85623 -1444 -11838 -187371
832428482669815680 85898 -1351 -11721 -187366
832428482688027776 86076 -1286 -11654 -187392
832428482706239872 86355 -1169 -11535 -187299
832428482724451968 86695 -961 -11430 -187363
832428482742664064 87204 -690 -11231 -187364
832428482760876160 87662 -429 -11071 -187392
832428482779088128 88144 -148 -10873 -187358
832428482797300224 88125 -244 -10927 -187380
832428482815512320 87412 -529 -11137 -187363
832428482833724416 86448 -1051 -11464 -187344
832428482851936512 85341 -1585 -11986 -187367
832428482870148608 84641 -1992 -12241 -187307
832428482888360704 84154 -2202 -12409 -187338
832428482906572800 84071 -2342 -12421 -187418
832428482924784896 84266 -2198 -12392 -187396
832428482942996992 84724 -2016 -12236 -187415
832428482961208960 85247 -1680 -12012 -187361
832428482979421056 85694 -1466 -11819 -187343
832428482997633152 86000 -1292 -11743 -187368
832428483015845248 86072 -1240 -11663 -187336
832428483034057344 86182 -1267 -11645 -187396
832428483052269440 86417 -1080 -11515 -187320
832428483070481536 86841 -837 -11420 -187366
832428483088693632 87496 -498 -11154 -187363
832428483106905728 87972 -247 -10963 -187336
832428483125117824 88063 -201 -10933 -187373
832428483143329834 87623 -404 -11066 -187386
832428483161542656 86948 -817 -11337 -187368
832428483179755520 85926 -1392 -11756 -187409
832428483197968384 84993 -1808 -12081 -187381
832428483216181248 84346 -2133 -12275 -187395
832428483234394240 84009 -2313 -12449 -187381
832428483252607104 83976 -2311 -12515 -187379
832428483270819968 84435 -2042 -12312 -187375
832428483289032832 84947 -1809 -12151 -187334
832428483307245696 85480 -1607 -11969 -187401
832428483325458560 85784 -1425 -11829 -187386
832428483343671424 85998 -1325 -11736 -187404
832428483361884288 86158 -1201 -11609 -187392
832428483380097280 86483 -1036 -11583 -187440
832428483398310144 86952 -876 -11427 -187422
832428483416523008 87349 -621 -11243 -187430
832428483434735872 87821 -305 -11049 -187373
832428483452948736 88009 -246 -10906 -187356
832428483471161600 87732 -369 -11030 -187369
832428483489374464 86988 -693 -11305 -187372
832428483507587456 86145 -1171 -11640 -187369
832428483525800320 85132 -1726 -12053 -187390
832428483544013184 84425 -2013 -12266 -187394
832428483562226048 84067 -2205 -12425 -187423
832428483580438912 84145 -2241 -12400 -187409
832428483598651776 84443 -2110 -12298 -187379
832428483616864640 84859 -1870 -12177 -187408
832428483635077504 85242 -1707 -12018 -187355
832428483653290496 85569 -1496 -11866 -187397
832428483671503360 85913 -1381 -11763 -187373
832428483689716224 86064 -1269 -11713 -187435
832428483707929088 86271 -1118 -11603 -187434
832428483726141952 86690 -973 -11426 -187368
832428483744354816 87187 -651 -11186 -187341
832428483762567680 87781 -368 -11014 -187374
832428483780780664 88190 -235 -10893 -187370
832428483798993152 87949 -308 -10958 -187385
832428483817205632 87215 -660 -11207 -187414
832428483835418112 86274 -1181 -11579 -187407
832428483853630592 85247 -1654 -11954 -187426
832428483871843072 84555 -2082 -12299 -187356
832428483890055552 84155 -2301 -12452 -187347
832428483908268032 84029 -2351 -12466 -187380
832428483926480512 84282 -2196 -12412 -187386
832428483944693120 84758 -1921 -12211 -187330
832428483962905600 85204 -1667 -11932 -187391
832428483981118080 85666 -1408 -11869 -187375
832428483999330560 85987 -1274 -11765 -187379
832428484017543040 86056 -1249 -11666 -187323
832428484035755520 86144 -1241 -11684 -187389
832428484053968000 86514 -1026 -11493 -187364
832428484072180480 86986 -757 -11298 -187398
832428484090392960 87590 -480 -11073 -187383
832428484108605440 88068 -220 -10877 -187355
832428484126817920 88045 -202 -10934 -187393
832428484145030400 87637 -444 -11027 -187372
832428484163242880 86754 -968 -11390 -187363
832428484181455360 85688 -1479 -11832 -187448
832428484199667840 84737 -1906 -12123 -187418
832428484217880448 84147 -2233 -12438 -187472
832428484236092928 83840 -2414 -12586 -187434
832428484254305408 84037 -2357 -12498 -187424
832428484272517888 84477 -2071 -12326 -187367
832428484290730368 84992 -1787 -12144 -187387
832428484308942848 85428 -1650 -11959 -187379
832428484327155328 85704 -1422 -11782 -187429
832428484345367808 85943 -1293 -11684 -187408
832428484363580288 86221 -1171 -11628 -187451
832428484381792768 86485 -1120 -11584 -187405
832428484400005248 86862 -828 -11435 -187355
832428484418217762 87328 -608 -11266 -187374
832428484436430080 87907 -319 -11060 -187322
832428484454642432 88066 -289 -10935 -187390
832428484472854656 87801 -427 -11082 -187360
832428484491067008 87072 -784 -11332 -187418
832428484509279360 86054 -1308 -11708 -187426
832428484527491712 85121 -1795 -12074 -187375
832428484545703936 84469 -2094 -12246 -187344
832428484563916288 84040 -2299 -12427 -187368
832428484582128640 84147 -2292 -12487 -187351
832428484600340864 84445 -2131 -12313 -187390
832428484618553216 84876 -1949 -12161 -187354
832428484636765568 85276 -1699 -11943 -187347
832428484654977792 85678 -1492 -11823 -187374
832428484673190144 85928 -1309 -11696 -187377
832428484691402496 86114 -1221 -11684 -187430
832428484709614848 86361 -1109 -11590 -187341
832428484727827072 86776 -926 -11358 -187275
832428484746039424 87310 -630 -11196 -187335
832428484764251776 87881 -261 -10948 -187327
832428484782464000 88087 -144 -10886 -187376
832428484800676352 87869 -317 -10985 -187397
832428484818888704 87077 -724 -11320 -187427
832428484837100928 86248 -1202 -11639 -187394
832428484855313280 85275 -1740 -12020 -187383
832428484873525632 84570 -2111 -12233 -187360
832428484891737984 84139 -2310 -12430 -187383
832428484909950208 84124 -2327 -12465 -187393
832428484928162560 84445 -2176 -12267 -187358
832428484946374912 84879 -1921 -12140 -187409
832428484964587136 85314 -1638 -11920 -187362
832428484982799488 85662 -1485 -11923 -187367
832428485001011840 85884 -1348 -11784 -187390
832428485019224064 85940 -1290 -11763 -187380
832428485037436416 86194 -1241 -11642 -187371
832428485055648748 86572 -1032 -11495 -187391
832428485073861888 87026 -766 -11241 -187401
832428485092075008 87699 -451 -11049 -187414
832428485110288128 88072 -235 -10935 -187367
832428485128501376 88068 -246 -10866 -187358
832428485146714496 87521 -440 -11034 -187395
832428485164927616 86602 -947 -11422 -187385
832428485183140736 85553 -1509 -11864 -187390
832428485201353856 84655 -1987 -12170 -187388
832428485219566976 84001 -2328 -12448 -187364
832428485237780224 83936 -2349 -12445 -187327
832428485255993344 84174 -2240 -12373 -187373
832428485274206464 84601 -2017 -12181 -187408
832428485292419584 85152 -1735 -12022 -187392
832428485310632704 85547 -1510 -11864 -187375
832428485328845824 85882 -1345 -11727 -187361
832428485347059072 86067 -1293 -11697 -187398
832428485365272192 86278 -1140 -11637 -187384
832428485383485312 86533 -1010 -11517 -187390
832428485401698432 86755 -873 -11478 -187427
832428485419911552 87315 -596 -11215 -187418
832428485438124800 87876 -285 -10953 -187366
832428485456337920 88077 -267 -10896 -187327
832428485474551040 87767 -392 -11016 -187340
832428485492764160 86942 -807 -11313 -187360
832428485510977280 85960 -1370 -11709 -187430
832428485529190400 85036 -1745 -12066 -187368
832428485547403648 84435 -2094 -12324 -187369
832428485565616768 84047 -2252 -12360 -187349
832428485583829888 84143 -2215 -12366 -187358
832428485602043008 84422 -2044 -12262 -187337
832428485620256128 84868 -1890 -12080 -187332
832428485638469248 85360 -1586 -11936 -187328
832428485656682496 85794 -1434 -11749 -187295
832428485674895616 86107 -1275 -11682 -187371
832428485693108734 86287 -1180 -11627 -187369
832428485711321856 86440 -1048 -11495 -187361
832428485729534976 86861 -846 -11383 -187330
832428485747748096 87392 -476 -11134 -187371
832428485765961344 87907 -306 -11026 -187383
832428485784174464 88098 -141 -10867 -187283
832428485802387584 87795 -293 -11012 -187347
832428485820600704 87150 -714 -11334 -187301
832428485838813824 86246 -1098 -11666 -187358
832428485857026944 85320 -1562 -11940 -187346
832428485875240192 84588 -1988 -12224 -187338
832428485893453312 84201 -2194 -12337 -187311
832428485911666432 84256 -2230 -12324 -187321
832428485929879552 84500 -2040 -12226 -187344
832428485948092672 84951 -1834 -12083 -187349
832428485966305792 85313 -1599 -11915 -187330
832428485984519040 85612 -1468 -11881 -187381
832428486002732160 85835 -1360 -11776 -187325
832428486020945280 86006 -1320 -11724 -187377
832428486039158400 86302 -1140 -11577 -187321
832428486057371520 86688 -935 -11390 -187371
832428486075584768 87138 -713 -11236 -187326
832428486093797888 87731 -382 -11021 -187328
832428486112011008 88245 -58 -10781 -187290
832428486130224128 88148 -195 -10859 -187346
832428486148437248 87506 -512 -11133 -187359
832428486166650368 86517 -971 -11464 -187358
832428486184863616 85476 -1550 -11931 -187414
832428486203076736 84664 -2020 -12266 -187432
832428486221289856 84172 -2233 -12433 -187344
832428486239502976 84068 -2280 -12402 -187321
832428486257716096 84233 -2176 -12367 -187328
832428486275929216 84713 -1887 -12171 -187369
832428486294142464 85266 -1654 -11988 -187356
832428486312355584 85735 -1421 -11787 -187312
832428486330568720 85973 -1312 -11717 -187304
832428486348781184 86131 -1191 -11625 -187275
832428486366993664 86248 -1185 -11647 -187299
832428486385206144 86457 -1108 -11567 -187324
832428486403418624 86855 -843 -11395 -187371
832428486421631104 87424 -574 -11190 -187359
832428486439843456 87949 -264 -10977 -187352
832428486458055936 88015 -217 -10932 -187419
832428486476268416 87650 -408 -11051 -187404
832428486494480896 86878 -831 -11345 -187409
832428486512693376 85900 -1313 -11726 -187412
832428486530905856 84991 -1761 -12030 -187363
832428486549118336 84378 -2091 -12268 -187315
832428486567330816 84056 -2309 -12447 -187309
832428486585543168 84095 -2291 -12379 -187332
832428486603755648 84534 -2026 -12229 -187328
832428486621968128 85027 -1754 -12028 -187324
832428486640180608 85473 -1535 -11898 -187354
832428486658393088 85838 -1396 -11766 -187373
832428486676605568 86063 -1261 -11718 -187376
832428486694818048 86323 -1189 -11596 -187351
832428486713030528 86576 -1012 -11475 -187344
832428486731242880 86928 -799 -11354 -187384
832428486749455360 87360 -590 -11187 -187386
832428486767667840 87843 -293 -10970 -187330
832428486785880320 88053 -210 -10917 -187359
832428486804092800 87838 -362 -11008 -187384
832428486822305280 87058 -719 -11270 -187381
832428486840517760 86094 -1198 -11636 -187403
832428486858730240 85199 -1693 -11982 -187371
832428486876942592 84486 -2075 -12222 -187380
832428486895155072 84208 -2243 -12375 -187374
832428486913367552 84211 -2253 -12398 -187339
832428486931580032 84460 -2119 -12274 -187370
832428486949792512 84921 -1831 -12107 -187315
832428486968004992 85289 -1618 -11941 -187384
832428486986217434 85588 -1487 -11898 -187347
832428487004432128 85952 -1309 -11724 -187308
832428487022646784 86138 -1217 -11615 -187286
832428487040861568 86324 -1104 -11550 -187325
832428487059076224 86741 -863 -11387 -187334
832428487077291008 87228 -635 -11211 -187305
832428487095505664 87822 -296 -10966 -187402
832428487113720448 88173 -132 -10846 -187347
832428487131935104 87977 -199 -10936 -187327
832428487150149760 87310 -608 -11164 -187377
832428487168364544 86422 -1106 -11535 -187385
832428487186579200 85446 -1661 -11866 -187349
832428487204793984 84614 -2050 -12213 -187362
832428487223008640 84109 -2251 -12434 -187358
832428487241223424 84008 -2277 -12447 -187363
832428487259438080 84312 -2075 -12289 -187332
832428487277652864 84767 -1892 -12145 -187351
832428487295867520 85336 -1627 -11908 -187380
832428487314082176 85689 -1433 -11794 -187328
832428487332296960 85984 -1310 -11736 -187353
832428487350511616 86074 -1221 -11649 -187334
832428487368726400 86158 -1197 -11637 -187374
832428487386941056 86500 -1035 -11501 -187376
832428487405155840 86953 -787 -11294 -187355
832428487423370496 87434 -502 -11136 -187367
832428487441585152 88016 -278 -10943 -187374
832428487459799936 88068 -205 -10941 -187341
832428487478014592 87540 -497 -11021 -187413
832428487496229376 86826 -824 -11372 -187372
832428487514444032 85809 -1398 -11760 -187369
832428487532658816 84757 -1866 -12108 -187341
832428487550873472 84123 -2263 -12420 -187440
832428487569088128 83893 -2328 -12483 -187406
832428487587302912 84091 -2262 -12428 -187374
832428487605517568 84546 -1978 -12285 -187376
832428487623732344 85048 -1753 -12094 -187395
832428487641945472 85494 -1505 -11908 -187392
832428487660158592 85838 -1398 -11786 -187362
832428487678371712 86135 -1229 -11632 -187372
832428487696584960 86349 -1088 -11580 -187347
832428487714798080 86530 -1000 -11496 -187385
832428487733011200 86911 -840 -11397 -187325
832428487751224320 87315 -588 -11218 -187367
832428487769437440 87810 -359 -11044 -187377
832428487787650560 87964 -268 -10940 -187424
832428487805863808 87705 -466 -11072 -187366
832428487824076928 86954 -793 -11376 -187421
832428487842290048 86025 -1231 -11716 -187372
832428487860503168 85137 -1714 -11967 -187349
832428487878716288 84564 -2050 -12253 -187328
832428487896929408 84222 -2223 -12432 -187337
832428487915142656 84207 -2218 -12410 -187391
832428487933355776 84470 -2050 -12315 -187387
832428487951568896 84848 -1892 -12169 -187334
832428487969782016 85285 -1670 -12035 -187387
832428487987995136 85712 -1470 -11871 -187384
832428488006208384 85914 -1300 -11719 -187368
832428488024421504 86083 -1244 -11700 -187330
832428488042634624 86384 -1055 -11520 -187301
832428488060847744 86729 -903 -11398 -187389
832428488079060864 87320 -620 -11200 -187343
832428488097273984 87934 -227 -10926 -187353
832428488115487232 88102 -126 -10878 -187350
832428488133700352 87891 -252 -10936 -187403
832428488151913472 87142 -688 -11224 -187329
832428488170126592 86263 -1198 -11581 -187341
832428488188339712 85340 -1634 -11923 -187339
832428488206552832 84579 -2059 -12246 -187340
832428488224766080 84099 -2337 -12394 -187379
832428488242979200 84023 -2381 -12446 -187373
832428488261192330 84325 -2150 -12314 -187343
832428488279405440 84862 -1925 -12202 -187394
832428488297618560 85298 -1652 -12005 -187376
832428488315831680 85680 -1454 -11852 -187326
832428488334044928 85913 -1280 -11705 -187296
832428488352258048 86046 -1279 -11716 -187347
832428488370471168 86268 -1141 -11650 -187401
832428488388684288 86654 -952 -11459 -187402
832428488406897408 87078 -705 -11266 -187427
832428488425110528 87626 -431 -11134 -187415
832428488443323776 88059 -252 -10942 -187417
832428488461536896 88104 -264 -10931 -187390
832428488479750016 87659 -487 -11098 -187389
832428488497963136 86793 -964 -11358 -187337
832428488516176256 85696 -1497 -11787 -187403
832428488534389376 84672 -1957 -12182 -187419
832428488552602624 84137 -2240 -12399 -187341
832428488570815744 83998 -2385 -12476 -187378
832428488589028864 84218 -2263 -12398 -187428
832428488607241984 84585 -2043 -12292 -187442
832428488625455104 85087 -1778 -12078 -187461
832428488643668352 85504 -1610 -11933 -187438
832428488661881472 85914 -1336 -11700 -187400
832428488680094592 86104 -1214 -11592 -187402
832428488698307712 86272 -1140 -11575 -187389
832428488716520832 86504 -999 -11488 -187410
832428488734733952 86886 -816 -11343 -187358
832428488752947200 87301 -542 -11223 -187415
832428488771160320 87874 -306 -11040 -187394
832428488789373440 88015 -222 -10919 -187407
832428488807586560 87636 -354 -11060 -187359
832428488825799680 86872 -790 -11357 -187375
832428488844012800 85884 -1301 -11745 -187378
832428488862226048 85099 -1758 -12028 -187363
832428488880439168 84463 -2053 -12248 -187370
832428488898652288 84030 -2314 -12434 -187370
832428488916865458 84075 -2304 -12438 -187352
832428488935078272 84300 -2182 -12361 -187408
832428488953291136 84819 -1927 -12149 -187381
832428488971504000 85343 -1617 -11953 -187355
832428488989716864 85662 -1402 -11825 -187384
832428489007929856 85932 -1302 -11753 -187384
832428489026142720 86083 -1215 -11676 -187337
832428489044355584 86376 -1131 -11623 -187366
832428489062568448 86843 -875 -11420 -187350
832428489080781312 87355 -602 -11182 -187345
832428489098994176 87880 -278 -11002 -187336
832428489117207040 88091 -205 -10953 -187349
832428489135419904 87742 -307 -11001 -187298
832428489153632896 87088 -712 -11269 -187404
832428489171845760 86212 -1159 -11579 -187424
832428489190058624 85264 -1675 -12002 -187402
832428489208271488 84531 -2037 -12294 -187376
832428489226484352 84210 -2214 -12404 -187378
832428489244697216 84140 -2260 -12426 -187339
832428489262910080 84464 -2120 -12307 -187386
832428489281123072 84947 -1837 -12044 -187355
832428489299335936 85363 -1739 -12002 -187380
832428489317548800 85597 -1557 -11840 -187431
832428489335761664 85809 -1463 -11781 -187361
832428489353974528 85978 -1288 -11705 -187394
832428489372187392 86238 -1182 -11588 -187366
832428489390400256 86683 -951 -11439 -187310
832428489408613120 87079 -770 -11388 -187312
832428489426826112 87633 -444 -11112 -187356
832428489445038976 88104 -140 -10923 -187357
832428489463251840 88063 -208 -10880 -187339
832428489481464704 87470 -430 -11093 -187343
832428489499677568 86542 -998 -11534 -187395
832428489517890432 85416 -1560 -11950 -187360
832428489536103296 84499 -2092 -12284 -187388
832428489554316288 84059 -2272 -12360 -187393
832428489572528000 83978 -2391 -12488 -187415
832428489590739712 84237 -2239 -12385 -187417
832428489608951296 84615 -1986 -12190 -187386
832428489627163008 85177 -1773 -12001 -187380
832428489645374592 85637 -1519 -11799 -187356
832428489663586304 85873 -1345 -11697 -187383
832428489681798016 86089 -1199 -11592 -187379
832428489700009600 86204 -1206 -11601 -187387
832428489718221312 86419 -1058 -11476 -187394
832428489736432896 86800 -876 -11355 -187402
832428489754644608 87332 -578 -11139 -187381
832428489772856320 87947 -340 -10950 -187397
832428489791067904 88049 -207 -10920 -187445
832428489809279616 87646 -417 -11135 -187406
832428489827491200 86809 -799 -11377 -187366
832428489845702912 85907 -1344 -11763 -187385
832428489863914496 85019 -1811 -12079 -187378
832428489882126208 84341 -2160 -12288 -187342
832428489900337920 84061 -2253 -12377 -187335
832428489918549504 84066 -2287 -12407 -187346
832428489936761216 84403 -2113 -12345 -187372
832428489954972800 84913 -1833 -12113 -187322
832428489973184512 85363 -1597 -11980 -187415
832428489991396224 85747 -1378 -11755 -187345
832428490009607808 85956 -1268 -11675 -187354
832428490027819520 86156 -1152 -11650 -187377
832428490046031104 86484 -1041 -11521 -187356
832428490064242816 86903 -835 -11359 -187327
832428490082454528 87396 -542 -11176 -187372
832428490100666112 87960 -242 -10989 -187363
832428490118877824 87998 -196 -10963 -187353
832428490137089408 87772 -318 -11034 -187373
832428490155301120 87019 -702 -11278 -187391
832428490173512832 86121 -1147 -11701 -187380
832428490191724386 85201 -1722 -12061 -187400
832428490209938176 84495 -2068 -12299 -187339
832428490228151936 84139 -2282 -12435 -187411
832428490246365696 84170 -2216 -12452 -187376
832428490264579328 84535 -2075 -12258 -187373
832428490282793088 84889 -1906 -12163 -187379
832428490301006848 85296 -1680 -11949 -187341
832428490319220608 85536 -1543 -11852 -187356
832428490337434368 85804 -1397 -11785 -187392
832428490355648000 86087 -1228 -11625 -187418
832428490373861760 86427 -1096 -11549 -187342
832428490392075520 86764 -897 -11435 -187313
832428490410289280 87147 -603 -11257 -187328
832428490428503040 87814 -281 -10972 -187347
832428490446716800 88145 -129 -10873 -187328
832428490464930432 87984 -213 -10931 -187386
832428490483144192 87286 -593 -11162 -187396
832428490501357952 86362 -1069 -11508 -187378
832428490519571712 85268 -1620 -11904 -187398
832428490537785472 84582 -2016 -12227 -187375
832428490555999104 84081 -2289 -12422 -187360
832428490574212864 84072 -2377 -12422 -187366
832428490592426624 84313 -2178 -12366 -187368
832428490610640384 84677 -1967 -12240 -187367
832428490628854144 85276 -1637 -11977 -187293
832428490647067776 85641 -1523 -11794 -187368
832428490665281536 86010 -1307 -11680 -187354
832428490683495296 86074 -1260 -11720 -187342
832428490701709056 86208 -1177 -11622 -187388
832428490719922816 86503 -1102 -11551 -187417
832428490738136576 86916 -830 -11423 -187406
832428490756350208 87587 -508 -11186 -187398
832428490774563968 88067 -227 -10954 -187369
832428490792777728 88105 -152 -10905 -187373
832428490810991488 87568 -425 -11128 -187352
832428490829205248 86832 -827 -11442 -187362
832428490847418878 85829 -1380 -11829 -187359
832428490865632256 84888 -1835 -12185 -187360
832428490883845632 84289 -2201 -12357 -187293
832428490902059008 84023 -2338 -12437 -187350
832428490920272384 84072 -2241 -12467 -187395
832428490938485888 84416 -2120 -12399 -187410
832428490956699264 85005 -1805 -12135 -187344
832428490974912640 85472 -1589 -11922 -187402
832428490993126016 85834 -1343 -11733 -187376
832428491011339392 86022 -1275 -11653 -187406
832428491029552768 86217 -1168 -11636 -187418
832428491047766272 86492 -1056 -11575 -187385
832428491065979648 86834 -829 -11415 -187407
832428491084193024 87330 -546 -11188 -187358
832428491102406400 87750 -305 -11036 -187395
832428491120619776 87978 -268 -10933 -187349
832428491138833152 87644 -372 -11113 -187398
832428491157046656 86958 -753 -11337 -187438
832428491175260032 86108 -1253 -11642 -187369
832428491193473408 85162 -1806 -12025 -187366
832428491211686784 84531 -2096 -12275 -187390
832428491229900160 84180 -2250 -12358 -187375
832428491248113536 84141 -2240 -12464 -187381
832428491266327040 84419 -2086 -12342 -187409
832428491284540416 84817 -1893 -12210 -187408
832428491302753792 85216 -1663 -11981 -187386
832428491320967168 85617 -1514 -11862 -187377
832428491339180544 85916 -1335 -11832 -187379
832428491357393920 86073 -1216 -11690 -187349
832428491375607424 86360 -1071 -11522 -187355
832428491393820800 86701 -860 -11456 -187366
832428491412034176 87251 -583 -11277 -187430
832428491430247552 87855 -350 -11059 -187393
832428491448460928 88086 -192 -10960 -187369
832428491466674304 87865 -317 -11017 -187378
832428491484887808 87180 -651 -11213 -187329
832428491503101160 86237 -1168 -11652 -187333
832428491521314304 85319 -1679 -11955 -187338
832428491539527424 84551 -2067 -12275 -187378
832428491557740544 84066 -2355 -12453 -187384
832428491575953792 83985 -2363 -12466 -187363
832428491594166912 84317 -2147 -12350 -187389
832428491612380032 84817 -1932 -12115 -187411
832428491630593152 85261 -1669 -12015 -187415
832428491648806272 85693 -1429 -11849 -187409
832428491667019392 85851 -1394 -11824 -187418
832428491685232640 85962 -1307 -11736 -187352
832428491703445760 86189 -1237 -11662 -187384
832428491721658880 86619 -1026 -11494 -187354
832428491739872000 87081 -734 -11339 -187371
832428491758085120 87585 -441 -11183 -187386
832428491776298240 88044 -235 -10919 -187359
832428491794511488 88012 -236 -10900 -187328
832428491812724608 87568 -469 -11105 -187386
832428491830937728 86711 -903 -11419 -187456
832428491849150848 85653 -1454 -11810 -187423
832428491867363968 84772 -1916 -12127 -187370
832428491885577216 84056 -2284 -12464 -187386
832428491903790336 83898 -2374 -12529 -187490
832428491922003456 84130 -2299 -12414 -187395
832428491940216576 84569 -2058 -12291 -187358
832428491958429696 85075 -1747 -12049 -187354
832428491976642816 85472 -1538 -11901 -187390
832428491994856064 85904 -1343 -11749 -187379
832428492013069184 86154 -1170 -11662 -187366
832428492031282304 86240 -1225 -11635 -187363
832428492049495424 86421 -1090 -11526 -187393
832428492067708544 86809 -851 -11343 -187390
832428492085921664 87255 -626 -11221 -187421
832428492104134912 87832 -306 -10998 -187410
832428492122348032 88011 -311 -10920 -187421
832428492140561146 87739 -418 -11066 -187414
832428492158774272 86937 -799 -11337 -187445
832428492176987392 86042 -1272 -11635 -187392
832428492195200512 85167 -1733 -12020 -187384
832428492213413760 84487 -2067 -12237 -187386
832428492231626880 84130 -2255 -12398 -187374
832428492249840000 84159 -2223 -12394 -187357
832428492268053120 84482 -2140 -12280 -187374
832428492286266240 84835 -1925 -12157 -187350
832428492304479360 85329 -1669 -11976 -187254
832428492322692608 85685 -1471 -11846 -187321
832428492340905728 85943 -1363 -11774 -187379
832428492359118848 86177 -1232 -11662 -187398
832428492377331968 86496 -1074 -11555 -187403
832428492395545088 86889 -875 -11397 -187351
832428492413758208 87334 -577 -11196 -187408
832428492431971456 87892 -352 -10958 -187396
832428492450184576 88051 -197 -10915 -187439
832428492468397696 87786 -321 -10991 -187403
832428492486610816 87040 -723 -11310 -187414
832428492504823936 86189 -1190 -11613 -187410
832428492523037184 85221 -1720 -11951 -187376
832428492541250304 84563 -2091 -12237 -187358
832428492559463424 84108 -2282 -12409 -187380
832428492577676544 84152 -2300 -12443 -187362
832428492595889664 84460 -2058 -12291 -187346
832428492614102784 84880 -1800 -12101 -187303
832428492632316032 85289 -1689 -12000 -187383
832428492650529152 85624 -1425 -11881 -187362
832428492668742272 85831 -1379 -11782 -187361
832428492686955392 86097 -1226 -11676 -187347
832428492705168512 86356 -1117 -11602 -187380
832428492723381632 86647 -1015 -11440 -187393
832428492741594880 87144 -713 -11321 -187390
832428492759808000 87661 -440 -11124 -187422
832428492778021132 88152 -212 -10914 -187362
832428492796235136 88125 -219 -10968 -187354
832428492814449152 87590 -486 -11130 -187324
832428492832663168 86606 -1001 -11545 -187375
832428492850877184 85544 -1551 -11868 -187355
832428492869091200 84580 -2008 -12227 -187371
832428492887305216 84110 -2312 -12340 -187401
832428492905519232 84002 -2349 -12478 -187403
832428492923733248 84214 -2266 -12404 -187378
832428492941947264 84580 -2081 -12220 -187429
832428492960161280 85152 -1801 -12040 -187404
832428492978375296 85676 -1485 -11866 -187420
832428492996589312 85947 -1258 -11710 -187349
832428493014803328 86134 -1161 -11614 -187378
832428493033017344 86203 -1157 -11673 -187397
832428493051231360 86458 -1024 -11527 -187337
832428493069445376 86826 -837 -11333 -187358
832428493087659392 87385 -576 -11148 -187354
832428493105873408 88000 -238 -10931 -187356
832428493124087424 88039 -254 -10979 -187428
832428493142301440 87621 -429 -11065 -187377
832428493160515456 86758 -927 -11354 -187389
832428493178729472 85831 -1354 -11738 -187404
832428493196943488 84935 -1794 -12058 -187394
832428493215157504 84305 -2190 -12313 -187395
832428493233371520 84033 -2352 -12446 -187364
832428493251585536 84044 -2366 -12456 -187394
832428493269799552 84392 -2170 -12275 -187357
832428493288013568 84874 -1872 -12147 -187407
832428493306227584 85365 -1584 -11958 -187380
832428493324441600 85691 -1471 -11870 -187398
832428493342655616 85876 -1358 -11747 -187414
832428493360869632 86125 -1274 -11663 -187396
832428493379083648 86446 -1067 -11494 -187375
832428493397297664 86887 -834 -11318 -187353
832428493415511628 87298 -594 -11215 -187388
832428493433725696 87875 -291 -11039 -187360
832428493451939712 87964 -261 -10988 -187391
832428493470153728 87754 -357 -11062 -187386
832428493488367744 87054 -781 -11335 -187370
832428493506581760 86095 -1309 -11692 -187407
832428493524795776 85203 -1717 -12008 -187372
832428493543009792 84460 -2155 -12277 -187333
832428493561223808 84051 -2365 -12461 -187383
832428493579437824 84124 -2252 -12475 -187388
832428493597651840 84491 -2116 -12328 -187397
832428493615865856 84874 -1842 -12176 -187395
832428493634079872 85360 -1642 -12007 -187360
832428493652293888 85640 -1489 -11887 -187367
832428493670507904 85849 -1361 -11746 -187389
832428493688721920 86073 -1234 -11657 -187424
832428493706935936 86321 -1122 -11593 -187391
832428493725149952 86681 -931 -11431 -187355
832428493743363968 87181 -672 -11230 -187386
832428493761577984 87744 -465 -11084 -187435
832428493779792000 88188 -154 -10863 -187307
832428493798006016 88080 -179 -10903 -187359
832428493816220032 87422 -519 -11138 -187384
832428493834434048 86414 -1039 -11504 -187347
832428493852648064 85363 -1573 -11845 -187258
832428493870862080 84554 -2039 -12230 -187367
832428493889076096 84203 -2249 -12369 -187367
832428493907290112 84076 -2333 -12412 -187370
832428493925504128 84274 -2204 -12370 -187377
832428493943718144 84689 -1986 -12163 -187360
832428493961932160 85182 -1704 -11999 -187423
832428493980146176 85687 -1432 -11788 -187386
832428493998360192 85953 -1324 -11675 -187403
832428494016574208 86072 -1242 -11640 -187372
832428494034788224 86222 -1173 -11584 -187396
832428494053002132 86457 -1077 -11534 -187377
832428494071216128 86887 -844 -11383 -187419
832428494089430144 87551 -516 -11133 -187437
832428494107644160 88008 -213 -10931 -187363
832428494125858048 88034 -300 -10926 -187426
832428494144072064 87552 -497 -11089 -187381
832428494162286080 86887 -826 -11363 -187361
832428494180500096 85894 -1403 -11780 -187376
832428494198714112 84903 -1836 -12122 -187367
832428494216928000 84273 -2167 -12378 -187341
832428494235142016 83869 -2384 -12547 -187356
832428494253356032 84076 -2337 -12401 -187360
832428494271570048 84538 -2093 -12187 -187338
832428494289784064 85044 -1834 -12022 -187341
832428494307997952 85490 -1530 -11885 -187383
832428494326211968 85865 -1389 -11780 -187392
832428494344425984 86022 -1239 -11719 -187368
832428494362640000 86288 -1175 -11607 -187439
832428494380854016 86541 -973 -11515 -187378
832428494399067904 86886 -815 -11293 -187390
832428494417281920 87343 -552 -11112 -187296
832428494435495936 87810 -331 -10941 -187377
832428494453709952 88004 -220 -10914 -187419
832428494471923968 87715 -371 -10986 -187378
832428494490137856 87044 -772 -11251 -187379
832428494508351872 86027 -1309 -11704 -187353
832428494526565888 85111 -1799 -11994 -187373
832428494544779904 84420 -2113 -12267 -187334
832428494562993920 84107 -2233 -12459 -187344
832428494581207808 84124 -2251 -12428 -187390
832428494599421824 84493 -2059 -12305 -187379
832428494617635840 84786 -1893 -12183 -187402
832428494635849856 85267 -1701 -12012 -187315
832428494654063872 85650 -1468 -11807 -187346
832428494672277760 85909 -1339 -11714 -187302
832428494690491776 86160 -1219 -11676 -187355
832428494708705778 86343 -1121 -11567 -187406
832428494726919040 86773 -929 -11423 -187379
832428494745132288 87258 -648 -11161 -187388
832428494763345408 87848 -365 -10920 -187336
832428494781558656 88155 -181 -10842 -187349
832428494799771776 87927 -304 -10925 -187387
832428494817985024 87191 -634 -11207 -187372
832428494836198144 86160 -1172 -11650 -187413
832428494854411392 85306 -1679 -12016 -187402
832428494872624512 84581 -2064 -12248 -187436
832428494890837760 84044 -2281 -12436 -187336
832428494909050880 83981 -2353 -12469 -187379
832428494927264128 84306 -2130 -12329 -187404
832428494945477248 84768 -1933 -12143 -187367
832428494963690496 85238 -1663 -12016 -187372
832428494981903616 85645 -1464 -11839 -187330
832428495000116864 85953 -1252 -11701 -187328
832428495018329984 86033 -1227 -11660 -187384
832428495036543232 86170 -1199 -11660 -187405
832428495054756352 86569 -1046 -11555 -187380
832428495072969600 87010 -714 -11373 -187438
832428495091182720 87577 -432 -11156 -187356
832428495109395968 88062 -226 -10927 -187384
832428495127609088 87985 -280 -10985 -187449
832428495145822336 87505 -506 -11088 -187417
832428495164035456 86792 -912 -11420 -187346
832428495182248704 85711 -1412 -11808 -187381
832428495200461824 84774 -1935 -12160 -187354
832428495218675072 84147 -2225 -12315 -187381
832428495236888192 83976 -2403 -12516 -187318
832428495255101440 84112 -2317 -12443 -187370
832428495273314560 84563 -2021 -12279 -187322
832428495291527808 85096 -1756 -12064 -187350
832428495309741056 85515 -1479 -11879 -187389
832428495327954176 85816 -1393 -11790 -187372
832428495346167290 86018 -1291 -11691 -187407
832428495364381312 86250 -1219 -11585 -187366
832428495382595328 86457 -1072 -11551 -187343
832428495400809216 86871 -806 -11369 -187333
832428495419023232 87277 -590 -11231 -187396
832428495437237248 87816 -304 -11029 -187424
832428495455451136 88010 -241 -11008 -187380
832428495473665152 87723 -385 -11068 -187393
832428495491879168 86964 -747 -11283 -187350
832428495510093056 86038 -1222 -11656 -187345
832428495528307072 85152 -1800 -12038 -187333
832428495546520960 84520 -2127 -12249 -187397
832428495564734976 84081 -2350 -12424 -187367
832428495582948992 84120 -2316 -12413 -187338
832428495601162880 84457 -2171 -12279 -187341
832428495619376896 84808 -1955 -12173 -187412
832428495637590912 85384 -1647 -11956 -187325
832428495655804800 85707 -1450 -11866 -187380
832428495674018816 85947 -1274 -11776 -187377
832428495692232832 86174 -1201 -11611 -187354
832428495710446720 86446 -1084 -11523 -187358
832428495728660736 86850 -852 -11339 -187364
832428495746874752 87330 -591 -11189 -187374
832428495765088640 87902 -337 -10961 -187404
832428495783302656 88138 -193 -10847 -187373
832428495801516544 87839 -289 -10929 -187344
832428495819730560 87010 -729 -11294 -187344
832428495837944576 86106 -1224 -11636 -187393
832428495856158464 85221 -1695 -11995 -187364
832428495874372480 84519 -2064 -12333 -187428
832428495892586496 84092 -2311 -12375 -187402
832428495910800384 84133 -2213 -12405 -187313
832428495929014400 84413 -2087 -12285 -187384
832428495947228416 84946 -1881 -12162 -187333
832428495965442304 85331 -1660 -12011 -187369
832428495983656260 85648 -1454 -11848 -187357
832428496001868928 85784 -1387 -11790 -187377
832428496020081536 86040 -1372 -11727 -187395
832428496038294272 86246 -1215 -11639 -187385
832428496056506880 86638 -948 -11493 -187406
832428496074719616 87075 -725 -11341 -187409
832428496092932224 87659 -454 -11050 -187350
832428496111144960 88085 -129 -10838 -187339
832428496129357568 88078 -194 -10859 -187342
832428496147570176 87568 -515 -11100 -187368
832428496165782912 86538 -1001 -11532 -187393
832428496183995520 85492 -1517 -11888 -187367
832428496202208256 84617 -1943 -12210 -187349
832428496220420864 84103 -2243 -12456 -187392
832428496238633600 83949 -2353 -12532 -187371
832428496256846208 84264 -2224 -12365 -187324
832428496275058816 84679 -2056 -12225 -187353
832428496293271552 85206 -1730 -12008 -187300
832428496311484160 85598 -1504 -11902 -187341
832428496329696896 85877 -1347 -11766 -187370
832428496347909504 86040 -1223 -11721 -187383
832428496366122240 86238 -1140 -11622 -187337
832428496384334848 86508 -982 -11517 -187370
832428496402547456 86842 -776 -11370 -187345
832428496420760192 87431 -536 -11187 -187372
832428496438972800 88013 -232 -10988 -187346
832428496457185536 88080 -222 -10864 -187359
832428496475398144 87652 -450 -10997 -187390
832428496493610880 86935 -814 -11400 -187395
832428496511823488 86005 -1284 -11667 -187309
832428496530036096 85094 -1794 -12037 -187347
832428496548248832 84314 -2165 -12413 -187403
832428496566461440 83991 -2284 -12451 -187367
832428496584674176 84033 -2298 -12495 -187420
832428496602886784 84323 -2179 -12350 -187400
832428496621099460 84917 -1819 -12121 -187337
832428496639312512 85401 -1610 -11968 -187341
832428496657525504 85765 -1431 -11793 -187395
832428496675738496 86010 -1317 -11670 -187401
832428496693951488 86208 -1159 -11550 -187334
832428496712164608 86589 -951 -11477 -187373
832428496730377600 86963 -772 -11340 -187334
832428496748590592 87347 -515 -11155 -187320
832428496766803584 87892 -273 -10967 -187337
832428496785016576 87976 -307 -10966 -187339
832428496803229568 87689 -425 -11044 -187378
832428496821442688 87087 -760 -11306 -187386
832428496839655680 86149 -1224 -11635 -187327
832428496857868672 85220 -1681 -11955 -187364
832428496876081664 84483 -2036 -12307 -187346
832428496894294656 84079 -2346 -12447 -187372
832428496912507648 84191 -2235 -12370 -187383
832428496930720640 84455 -2079 -12292 -187352
832428496948933760 84819 -1910 -12140 -187346
832428496967146752 85250 -1628 -11967 -187311
832428496985359744 85558 -1523 -11880 -187341
832428497003572736 85811 -1330 -11749 -187347
832428497021785728 86019 -1254 -11711 -187374
832428497039998720 86351 -1172 -11591 -187350
832428497058211840 86714 -964 -11437 -187360
832428497076424832 87125 -713 -11289 -187410
832428497094637824 87827 -356 -11031 -187368
832428497112850816 88208 -159 -10884 -187335
832428497131063808 88078 -266 -10972 -187373
832428497149276800 87338 -605 -11291 -187396
832428497167489792 86411 -1086 -11575 -187319
832428497185702912 85335 -1670 -11956 -187392
832428497203915904 84491 -2061 -12307 -187439
832428497222128896 84049 -2311 -12410 -187392
832428497240341888 83981 -2406 -12492 -187375
832428497258554870 84243 -2178 -12308 -187353
832428497276768640 84707 -1899 -12129 -187344
832428497294982400 85284 -1719 -12020 -187394
832428497313196160 85705 -1510 -11862 -187373
832428497331409920 86023 -1277 -11673 -187333
832428497349623680 86110 -1277 -11657 -187369
832428497367837440 86191 -1169 -11625 -187320
832428497386051328 86468 -1052 -11483 -187349
832428497404265088 86904 -805 -11338 -187414
832428497422478848 87451 -488 -11115 -187350
832428497440692608 87979 -280 -10895 -187406
832428497458906368 88011 -261 -10891 -187355
832428497477120128 87617 -486 -11056 -187366
832428497495333888 86917 -813 -11307 -187401
832428497513547648 85894 -1385 -11683 -187378
832428497531761408 85033 -1799 -12056 -187355
832428497549975168 84292 -2199 -12371 -187340
832428497568188928 83979 -2329 -12485 -187371
832428497586402688 84088 -2258 -12410 -187366
832428497604616576 84468 -2035 -12330 -187356
832428497622830336 85029 -1805 -12093 -187332
832428497641044096 85528 -1525 -11875 -187315
832428497659257856 85837 -1338 -11815 -187330
832428497677471616 86012 -1200 -11659 -187303
832428497695685376 86300 -1118 -11564 -187318
832428497713899136 86543 -1021 -11473 -187310
832428497732112896 86888 -788 -11296 -187327
832428497750326656 87366 -600 -11154 -187349
832428497768540416 87857 -337 -10957 -187309
832428497786754176 87972 -284 -10994 -187354
832428497804967936 87687 -402 -11065 -187360
832428497823181824 86995 -747 -11333 -187337
832428497841395584 86089 -1254 -11623 -187315
832428497859609344 85159 -1723 -12044 -187300
832428497877823076 84476 -2062 -12299 -187341
832428497896036224 84212 -2268 -12377 -187307
832428497914249344 84240 -2180 -12370 -187384
832428497932462464 84495 -2081 -12315 -187385
832428497950675712 84841 -1840 -12104 -187357
832428497968888832 85263 -1688 -11974 -187381
832428497987101952 85680 -1487 -11846 -187384
832428498005315072 85914 -1290 -11731 -187372
832428498023528192 86087 -1183 -11660 -187370
832428498041741312 86321 -1143 -11603 -187316
832428498059954560 86687 -895 -11418 -187386
832428498078167680 87178 -721 -11243 -187388
832428498096380800 87801 -357 -11060 -187443
832428498114593920 88218 -77 -10868 -187339
832428498132807040 87964 -216 -10981 -187406
832428498151020160 87264 -615 -11247 -187383
832428498169233408 86238 -1137 -11514 -187400
832428498187446528 85297 -1689 -11950 -187376
832428498205659648 84528 -2036 -12226 -187385
832428498223872768 84103 -2218 -12409 -187398
832428498242085888 84059 -2314 -12489 -187448
832428498260299008 84280 -2113 -12411 -187351
832428498278512256 84845 -1894 -12141 -187345
832428498296725376 85333 -1649 -11921 -187395
832428498314938496 85683 -1425 -11803 -187333
832428498333151616 85897 -1307 -11708 -187337
832428498351364736 85992 -1239 -11661 -187370
832428498369577984 86160 -1231 -11633 -187319
832428498387791104 86502 -992 -11474 -187394
832428498406004224 87076 -764 -11311 -187387
832428498424217344 87661 -416 -11021 -187294
832428498442430464 88130 -131 -10899 -187339
832428498460643584 88086 -251 -10911 -187318
832428498478856832 87598 -453 -11111 -187345
832428498497069952 86766 -868 -11387 -187454
832428498515283072 85728 -1387 -11735 -187323
832428498533496196 84792 -1871 -12179 -187385
832428498551708800 84183 -2219 -12408 -187325
832428498569921408 83992 -2346 -12541 -187361
832428498588134144 84081 -2238 -12495 -187380
832428498606346752 84533 -2006 -12246 -187352
832428498624559488 85059 -1741 -12036 -187375
832428498642772096 85521 -1517 -11889 -187398
832428498660984832 85808 -1408 -11711 -187409
832428498679197440 86161 -1176 -11639 -187344
832428498697410048 86285 -1132 -11627 -187411
832428498715622784 86520 -993 -11460 -187302
832428498733835392 86792 -811 -11363 -187345
832428498752048128 87306 -610 -11166 -187338
832428498770260736 87840 -380 -11034 -187363
832428498788473472 88065 -231 -10932 -187335
832428498806686080 87716 -382 -11046 -187387
832428498824898688 87009 -731 -11316 -187371
832428498843111424 86027 -1253 -11700 -187381
832428498861324032 85104 -1709 -12060 -187392
832428498879536768 84491 -2036 -12277 -187379
832428498897749376 84190 -2265 -12369 -187338
832428498915962112 84163 -2269 -12431 -187375
832428498934174720 84402 -2070 -12307 -187317
832428498952387328 84789 -1869 -12135 -187383
832428498970600064 85321 -1615 -11970 -187330
832428498988812672 85693 -1416 -11833 -187397
832428499007025408 85972 -1210 -11733 -187360
832428499025238016 86153 -1199 -11658 -187337
832428499043450752 86341 -1121 -11564 -187368
832428499061663360 86831 -815 -11362 -187360
832428499079875968 87309 -570 -11205 -187398
832428499098088704 87932 -262 -10958 -187349
832428499116301312 88101 -204 -10944 -187343
832428499134514048 87862 -253 -10952 -187296
832428499152726656 87098 -630 -11270 -187335
832428499170939396 86253 -1130 -11596 -187355
832428499189152384 85343 -1651 -11998 -187341
832428499207365376 84580 -2010 -12256 -187384
832428499225578368 84110 -2280 -12430 -187405
832428499243791360 84070 -2276 -12451 -187410
832428499262004480 84397 -2086 -12319 -187390
832428499280217472 84898 -1916 -12165 -187364
832428499298430464 85287 -1560 -11930 -187350
832428499316643456 85632 -1432 -11799 -187296
832428499334856448 85931 -1345 -11709 -187301
832428499353069440 85920 -1342 -11738 -187373
832428499371282560 86260 -1151 -11641 -187381
832428499389495552 86633 -969 -11457 -187340
832428499407708544 87106 -782 -11276 -187375
832428499425921536 87601 -480 -11093 -187318
832428499444134528 88081 -230 -10873 -187366
832428499462347520 88042 -241 -10872 -187389
832428499480560512 87493 -483 -11121 -187338
832428499498773632 86600 -971 -11389 -187370
832428499516986624 85531 -1479 -11855 -187346
832428499535199616 84591 -2014 -12228 -187360
832428499553412608 84094 -2316 -12424 -187355
832428499571625600 83969 -2376 -12456 -187327
832428499589838592 84235 -2228 -12325 -187387
832428499608051712 84677 -1997 -12233 -187354
832428499626264704 85087 -1798 -12083 -187394
832428499644477696 85591 -1507 -11849 -187356
832428499662690688 85940 -1334 -11746 -187347
832428499680903680 86165 -1193 -11678 -187353
832428499699116672 86295 -1115 -11602 -187306
832428499717329664 86470 -981 -11546 -187323
832428499735542784 86887 -818 -11344 -187326
832428499753755776 87456 -542 -11184 -187338
832428499771968768 87989 -235 -11013 -187307
832428499790181760 88117 -153 -10889 -187300
832428499808394806 87746 -364 -11056 -187295
832428499826608512 86917 -779 -11312 -187354
832428499844822272 85988 -1257 -11692 -187309
832428499863036032 85144 -1752 -12010 -187354
832428499881249792 84456 -2045 -12298 -187359
832428499899463552 84129 -2228 -12403 -187339
832428499917677312 84147 -2210 -12387 -187371
832428499935891072 84403 -2072 -12327 -187360
832428499954104832 84935 -1849 -12100 -187369
832428499972318592 85416 -1576 -11915 -187372
832428499990532224 85787 -1342 -11730 -187356
832428500008745984 86032 -1325 -11634 -187339
832428500026959744 86242 -1170 -11589 -187355
832428500045173504 86560 -972 -11465 -187373
832428500063387264 86959 -793 -11329 -187367
832428500081601024 87424 -560 -11165 -187317
832428500099814784 87877 -269 -10988 -187363
832428500118028544 88063 -151 -10844 -187318
832428500136242304 87686 -364 -11006 -187350
832428500154456064 87035 -707 -11251 -187327
832428500172669824 86152 -1233 -11673 -187374
832428500190883584 85278 -1706 -11966 -187363
832428500209097344 84525 -2109 -12306 -187322
832428500227311104 84180 -2333 -12399 -187360
832428500245524864 84233 -2281 -12358 -187342
832428500263738624 84428 -2063 -12255 -187356
832428500281952384 84791 -1848 -12130 -187306
832428500300166144 85286 -1645 -11969 -187316
832428500318379776 85653 -1494 -11823 -187246
832428500336593536 85848 -1409 -11753 -187369
832428500354807296 86049 -1312 -11652 -187384
832428500373021056 86324 -1110 -11580 -187363
832428500391234816 86711 -908 -11395 -187379
832428500409448576 87241 -683 -11250 -187345
832428500427662336 87781 -385 -11025 -187384
832428500445876154 88188 -149 -10878 -187361
832428500464089984 88034 -225 -10942 -187319
832428500482303872 87434 -537 -11072 -187346
832428500500517632 86493 -1031 -11481 -187337
832428500518731520 85429 -1587 -11884 -187372
832428500536945280 84633 -2044 -12208 -187393
832428500555159168 84195 -2238 -12341 -187327
832428500573373056 84059 -2318 -12385 -187384
832428500591586816 84292 -2217 -12325 -187411
832428500609800704 84700 -1926 -12140 -187344
832428500628014592 85195 -1619 -11909 -187333
832428500646228352 85664 -1431 -11743 -187333
832428500664442240 85898 -1337 -11688 -187317
832428500682656000 86031 -1200 -11652 -187345
832428500700869888 86209 -1166 -11616 -187334
832428500719083776 86445 -1028 -11496 -187397
832428500737297536 86934 -796 -11335 -187335
832428500755511424 87436 -510 -11191 -187370
832428500773725312 88000 -233 -10906 -187350
832428500791939072 88067 -214 -10915 -187343
832428500810152960 87642 -472 -11064 -187352
832428500828366720 86901 -834 -11354 -187351
832428500846580608 85906 -1289 -11713 -187400
832428500864794496 84952 -1815 -12042 -187396
832428500883008256 84370 -2088 -12244 -187359
832428500901222144 84008 -2303 -12388 -187340
832428500919436032 84059 -2251 -12399 -187361
832428500937649792 84501 -2059 -12306 -187326
832428500955863680 84965 -1732 -12039 -187360
832428500974077440 85492 -1548 -11873 -187377
832428500992291328 85835 -1374 -11764 -187334
832428501010505216 86018 -1245 -11643 -187327
832428501028718976 86274 -1072 -11554 -187315
832428501046932864 86448 -984 -11512 -187396
832428501065146752 86859 -756 -11340 -187391
832428501083360548 87347 -561 -11156 -187396
832428501101574272 87900 -337 -11033 -187344
832428501119788032 87938 -278 -10979 -187363
832428501138001920 87707 -389 -11048 -187325
832428501156215680 86989 -794 -11354 -187362
832428501174429440 86086 -1274 -11662 -187352
832428501192643200 85193 -1737 -12019 -187359
832428501210857088 84553 -2153 -12262 -187307
832428501229070848 84196 -2276 -12328 -187337
832428501247284608 84263 -2299 -12343 -187338
832428501265498496 84477 -2079 -12230 -187337
832428501283712256 84793 -1920 -12172 -187373
832428501301926016 85270 -1664 -12012 -187379
832428501320139776 85614 -1513 -11840 -187370
832428501338353664 85921 -1268 -11709 -187330
832428501356567424 86048 -1269 -11676 -187396
832428501374781184 86344 -1131 -11616 -187414
832428501392995072 86723 -931 -11405 -187366
832428501411208832 87235 -676 -11258 -187421
832428501429422592 87918 -259 -10971 -187364
832428501447636352 88157 -177 -10878 -187395
832428501465850240 87876 -260 -10961 -187378
832428501484064000 87219 -576 -11233 -187354
832428501502277760 86260 -1066 -11582 -187345
832428501520491648 85315 -1611 -11959 -187332
832428501538705408 84544 -2048 -12246 -187394
832428501556919168 84172 -2202 -12356 -187311
832428501575132928 84056 -2346 -12417 -187336
832428501593346816 84319 -2221 -12334 -187390
832428501611560576 84736 -1909 -12124 -187353
832428501629774336 85262 -1614 -11905 -187354
832428501647988224 85625 -1444 -11838 -187376
832428501666201984 85918 -1331 -11656 -187364
832428501684415744 85982 -1263 -11684 -187372
832428501702629504 86144 -1211 -11619 -187362
832428501720843422 86579 -947 -11466 -187334
832428501739057152 87024 -744 -11328 -187347
832428501757270912 87608 -443 -11082 -187332
832428501775484800 88036 -209 -10899 -187335
832428501793698560 88067 -145 -10849 -187337
832428501811912448 87646 -390 -11042 -187340
832428501830126208 86820 -885 -11378 -187337
832428501848340096 85771 -1437 -11763 -187317
832428501866553856 84824 -1978 -12129 -187372
832428501884767744 84194 -2291 -12366 -187353
832428501902981504 83965 -2398 -12473 -187350
832428501921195392 84162 -2289 -12384 -187328
832428501939409152 84583 -2027 -12251 -187283
832428501957623040 85087 -1751 -12019 -187332
832428501975836800 85490 -1556 -11867 -187363
832428501994050688 85894 -1312 -11732 -187326
832428502012264448 86084 -1243 -11644 -187354
832428502030478336 86277 -1098 -11568 -187343
832428502048692096 86543 -987 -11478 -187274
832428502066905984 86855 -767 -11325 -187347
832428502085119744 87323 -609 -11202 -187371
832428502103333504 87882 -344 -10966 -187357
832428502121547392 88086 -209 -10865 -187313
832428502139761152 87787 -437 -11019 -187383
832428502157975040 86935 -764 -11324 -187345
832428502176188800 85971 -1334 -11686 -187411
832428502194402688 85061 -1802 -12029 -187354
832428502212616448 84512 -2053 -12240 -187404
832428502230830336 84180 -2240 -12368 -187392
832428502249044096 84132 -2315 -12430 -187383
832428502267257984 84461 -2110 -12329 -187369
832428502285471744 84783 -1909 -12156 -187398
832428502303685632 85296 -1595 -11915 -187369
832428502321899392 85723 -1443 -11808 -187392
832428502340113280 86002 -1333 -11731 -187328
832428502358327040 86168 -1246 -11614 -187404
832428502376540964 86372 -1078 -11522 -187372
832428502394754688 86834 -836 -11411 -187324
832428502412968448 87344 -607 -11203 -187395
832428502431182336 87930 -268 -10975 -187403
832428502449396096 88113 -190 -10949 -187356
832428502467609856 87921 -260 -10980 -187381
832428502485823616 87127 -763 -11288 -187394
832428502504037504 86226 -1158 -11647 -187334
832428502522251264 85268 -1642 -12027 -187403
832428502540465024 84535 -2052 -12316 -187391
832428502558678912 84060 -2287 -12464 -187333
832428502576892672 84030 -2357 -12461 -187341
832428502595106432 84371 -2231 -12346 -187414
832428502613320192 84873 -1867 -12151 -187335
832428502631534080 85263 -1658 -12004 -187428
832428502649747840 85673 -1514 -11864 -187347
832428502667961600 85911 -1413 -11790 -187366
832428502686175488 85946 -1286 -11747 -187354
832428502704389248 86177 -1220 -11680 -187364
832428502722603008 86606 -972 -11525 -187330
832428502740816768 87049 -672 -11259 -187366
832428502759030656 87619 -401 -11046 -187355
832428502777244416 88030 -244 -10911 -187431
832428502795458176 88038 -259 -10899 -187434
832428502813672064 87477 -528 -11118 -187398
832428502831885824 86695 -894 -11425 -187406
832428502850099584 85631 -1455 -11833 -187414
832428502868313344 84666 -1933 -12209 -187453
832428502886527232 84017 -2277 -12383 -187364
832428502904740992 83920 -2350 -12506 -187378
832428502922954752 84257 -2242 -12353 -187338
832428502941168640 84678 -2042 -12183 -187363
832428502959382400 85165 -1773 -11986 -187350
832428502977596160 85526 -1548 -11898 -187359
832428502995809920 85898 -1323 -11712 -187370
832428503014023838 86082 -1168 -11622 -187384
832428503032238464 86197 -1147 -11603 -187417
832428503050453120 86501 -1000 -11568 -187360
832428503068667776 86792 -867 -11423 -187337
832428503086882432 87350 -619 -11210 -187385
832428503105097088 87933 -349 -11001 -187409
832428503123311744 87985 -227 -10932 -187347
832428503141526528 87688 -415 -11077 -187342
832428503159741184 86907 -829 -11347 -187353
832428503177955840 85911 -1330 -11685 -187383
832428503196170496 85051 -1777 -11998 -187381
832428503214385152 84425 -2150 -12255 -187411
832428503232599808 84067 -2335 -12442 -187392
832428503250814464 84092 -2269 -12479 -187435
832428503269029120 84418 -2113 -12284 -187360
832428503287243776 84865 -1919 -12135 -187354
832428503305458432 85400 -1653 -11938 -187377
832428503323673216 85750 -1466 -11888 -187336
832428503341887872 85982 -1316 -11764 -187435
832428503360102528 86129 -1183 -11674 -187401
832428503378317184 86483 -1043 -11548 -187396
832428503396531840 86857 -881 -11402 -187376
832428503414746496 87278 -605 -11214 -187394
832428503432961152 87892 -314 -10966 -187343
832428503451175808 88040 -241 -10891 -187363
832428503469390464 87755 -289 -10992 -187320
832428503487605120 87073 -754 -11305 -187397
832428503505819776 86129 -1187 -11642 -187417
832428503524034560 85205 -1683 -12003 -187379
832428503542249216 84513 -2072 -12272 -187375
832428503560463872 84136 -2312 -12499 -187427
832428503578678528 84126 -2214 -12376 -187361
832428503596893184 84462 -2061 -12254 -187395
832428503615107840 84832 -1916 -12157 -187406
832428503633322496 85325 -1652 -11946 -187389
832428503651537224 85626 -1472 -11804 -187362
832428503669751040 85798 -1416 -11800 -187313
832428503687964800 85991 -1233 -11707 -187400
832428503706178688 86288 -1118 -11611 -187402
832428503724392448 86627 -936 -11482 -187388
832428503742606208 87108 -774 -11323 -187341
832428503760819968 87723 -390 -11055 -187347
832428503779033856 88148 -225 -10906 -187404
832428503797247616 88026 -264 -10961 -187376
832428503815461376 87457 -542 -11171 -187371
832428503833675264 86538 -999 -11499 -187333
832428503851889024 85433 -1627 -11905 -187383
832428503870102784 84586 -2078 -12186 -187404
832428503888316544 84137 -2280 -12385 -187409
832428503906530432 84016 -2342 -12438 -187430
832428503924744192 84296 -2209 -12366 -187353
832428503942957952 84640 -2047 -12171 -187378
832428503961171840 85155 -1717 -11999 -187377
832428503979385600 85659 -1498 -11863 -187373
832428503997599360 85940 -1336 -11688 -187354
832428504015813120 86102 -1176 -11634 -187363
832428504034027008 86282 -1126 -11600 -187381
832428504052240768 86490 -1016 -11528 -187383
832428504070454528 86885 -816 -11402 -187407
832428504088668416 87471 -458 -11172 -187359
832428504106882176 88045 -214 -10942 -187356
832428504125095936 88081 -229 -10985 -187431
832428504143309696 87690 -392 -11064 -187332
832428504161523584 86862 -876 -11369 -187374
832428504179737344 85884 -1344 -11776 -187342
832428504197951104 84944 -1803 -12085 -187350
832428504216164992 84344 -2148 -12311 -187383
832428504234378752 84027 -2340 -12420 -187329
832428504252592512 84069 -2276 -12362 -187358
832428504270806272 84450 -2054 -12241 -187374
832428504289020098 84942 -1816 -12042 -187394
832428504307234432 85442 -1610 -11907 -187346
832428504325448704 85817 -1381 -11744 -187295
832428504343663104 85990 -1290 -11684 -187301
832428504361877376 86281 -1149 -11581 -187339
832428504380091776 86510 -996 -11481 -187328
832428504398306048 86882 -822 -11327 -187381
832428504416520448 87315 -619 -11191 -187352
832428504434734720 87777 -346 -11010 -187305
832428504452949120 87891 -254 -10952 -187300
832428504471163392 87674 -358 -11070 -187360
832428504489377664 87030 -753 -11306 -187406
832428504507592064 86082 -1266 -11662 -187368
832428504525806336 85150 -1741 -11997 -187344
832428504544020736 84489 -2045 -12290 -187361
832428504562235008 84161 -2278 -12428 -187388
832428504580449408 84176 -2207 -12347 -187374
832428504598663680 84501 -2099 -12284 -187397
832428504616878080 84809 -1871 -12157 -187363
832428504635092352 85269 -1662 -11938 -187362
832428504653306624 85638 -1599 -11892 -187367
832428504671521024 85927 -1386 -11728 -187357
832428504689735296 86091 -1312 -11680 -187377
832428504707949696 86364 -1141 -11599 -187404
832428504726163968 86691 -941 -11443 -187408
832428504744378368 87187 -675 -11255 -187402
832428504762592640 87814 -323 -11040 -187379
832428504780807040 88181 -205 -10862 -187323
832428504799021312 87992 -245 -10908 -187430
832428504817235712 87257 -595 -11201 -187404
832428504835449984 86314 -1071 -11538 -187351
832428504853664256 85319 -1654 -11971 -187403
832428504871878656 84578 -2031 -12229 -187361
832428504890092928 84161 -2284 -12490 -187338
832428504908307328 84013 -2354 -12460 -187386
832428504926521600 84320 -2132 -12297 -187353
832428504944735950 84779 -1935 -12225 -187325
832428504962950144 85317 -1728 -12033 -187401
832428504981164288 85710 -1414 -11791 -187363
832428504999378432 85897 -1355 -11727 -187319
832428505017592576 86041 -1286 -11659 -187385
832428505035806720 86139 -1209 -11642 -187352
832428505054020864 86483 -1022 -11545 -187412
832428505072235008 86944 -796 -11338 -187378
832428505090449152 87562 -467 -11105 -187384
832428505108663296 88006 -231 -10953 -187430
832428505126877440 88088 -182 -10908 -187372
832428505145091584 87599 -437 -11103 -187417
832428505163305728 86842 -826 -11371 -187357
832428505181519872 85810 -1405 -11726 -187366
832428505199734016 84825 -1872 -12107 -187356
832428505217948160 84204 -2284 -12344 -187378
832428505236162304 83920 -2427 -12517 -187357
832428505254376448 84130 -2301 -12419 -187336
832428505272590592 84541 -2089 -12245 -187322
832428505290804736 85073 -1762 -12036 -187319
832428505309018880 85541 -1508 -11855 -187310
832428505327233024 85876 -1253 -11696 -187338
832428505345447168 86183 -1270 -11654 -187381
832428505363661312 86336 -1107 -11589 -187300
832428505381875456 86587 -985 -11486 -187354
832428505400089600 86928 -842 -11389 -187388
832428505418303744 87380 -580 -11249 -187359
832428505436517888 87912 -314 -11046 -187372
832428505454732032 88066 -211 -11005 -187363
832428505472946176 87776 -469 -11076 -187383
832428505491160320 86937 -792 -11383 -187381
832428505509374464 85978 -1299 -11714 -187376
832428505527588608 85097 -1746 -12073 -187371
832428505545802752 84462 -2022 -12246 -187356
832428505564016896 84085 -2236 -12363 -187419
832428505582231032 84118 -2249 -12434 -187413
832428505600444928 84378 -2089 -12316 -187317
832428505618658816 84865 -1900 -12156 -187328
832428505636872704 85325 -1632 -11977 -187372
832428505655086592 85693 -1470 -11853 -187351
832428505673300480 85883 -1331 -11769 -187406
832428505691514368 86075 -1184 -11662 -187374
832428505709728256 86355 -1088 -11575 -187363
832428505727942144 86772 -877 -11347 -187329
832428505746156032 87285 -572 -11133 -187349
832428505764369920 87874 -264 -10947 -187336
832428505782583808 88097 -153 -10912 -187357
832428505800797696 87843 -324 -10987 -187370
832428505819011584 87098 -677 -11327 -187376
832428505837225472 86188 -1132 -11614 -187374
832428505855439232 85271 -1701 -11967 -187391
832428505873653120 84517 -2059 -12237 -187390
832428505891867008 84112 -2275 -12364 -187383
832428505910080896 84161 -2238 -12353 -187342
832428505928294784 84411 -2103 -12245 -187375
832428505946508672 84895 -1886 -12081 -187367
832428505964722560 85340 -1576 -11900 -187336
832428505982936448 85594 -1471 -11844 -187333
832428506001150336 85824 -1321 -11721 -187360
832428506019364224 85989 -1255 -11703 -187292
832428506037578112 86202 -1155 -11695 -187313
832428506055792000 86537 -1018 -11473 -187391
832428506074005888 87094 -714 -11306 -187334
832428506092219776 87586 -425 -11021 -187370
832428506110433664 88047 -168 -10821 -187327
832428506128647552 88146 -154 -10838 -187339
832428506146861440 87607 -475 -11044 -187406
832428506165075328 86726 -970 -11386 -187418
832428506183289216 85636 -1483 -11812 -187409
832428506201503104 84781 -1960 -12149 -187381
832428506219716950 84112 -2259 -12367 -187337
832428506237931520 83998 -2342 -12447 -187393
832428506256146048 84274 -2141 -12314 -187357
832428506274360704 84693 -1960 -12159 -187304
832428506292575232 85160 -1724 -11990 -187340
832428506310789888 85590 -1500 -11868 -187345
832428506329004416 85962 -1319 -11667 -187353
832428506347218944 86163 -1211 -11614 -187322
832428506365433600 86291 -1108 -11560 -187352
832428506383648128 86535 -984 -11486 -187316
832428506401862784 86848 -861 -11373 -187295
832428506420077312 87385 -577 -11135 -187323
832428506438291968 87941 -277 -10891 -187333
832428506456506496 88050 -196 -10911 -187400
832428506474721024 87668 -419 -11011 -187315
832428506492935680 86890 -772 -11372 -187398
832428506511150208 86015 -1279 -11709 -187377
832428506529364864 85111 -1764 -12042 -187323
832428506547579392 84448 -2109 -12310 -187359
832428506565793920 84102 -2287 -12415 -187392
832428506584008576 84112 -2352 -12410 -187355
832428506602223104 84387 -2184 -12270 -187410
832428506620437760 84876 -1889 -12088 -187330
832428506638652288 85386 -1589 -11915 -187342
832428506656866944 85698 -1424 -11849 -187425
832428506675081472 86064 -1309 -11722 -187349
832428506693296000 86182 -1169 -11622 -187342
832428506711510656 86462 -1011 -11534 -187362
832428506729725184 86914 -798 -11343 -187340
832428506747939840 87447 -475 -11174 -187324
832428506766154368 87966 -224 -10893 -187328
832428506784368896 88029 -200 -10915 -187398
832428506802583552 87692 -340 -11023 -187368
832428506820798080 87039 -757 -11309 -187378
832428506839012736 86235 -1149 -11592 -187325
832428506857227292 85252 -1723 -11970 -187332
832428506875441920 84529 -2026 -12275 -187355
832428506893656576 84093 -2290 -12425 -187335
832428506911871232 84183 -2196 -12344 -187326
832428506930085888 84550 -2109 -12257 -187396
832428506948300544 84944 -1875 -12102 -187336
832428506966515200 85304 -1643 -11943 -187326
832428506984729984 85638 -1454 -11810 -187316
832428507002944640 85843 -1294 -11735 -187300
832428507021159296 86116 -1261 -11685 -187346
832428507039373952 86359 -1116 -11568 -187366
832428507057588608 86695 -956 -11409 -187398
832428507075803264 87142 -668 -11290 -187355
832428507094017920 87737 -314 -11001 -187299
832428507112232576 88127 -98 -10934 -187378
832428507130447232 88047 -120 -10906 -187358
832428507148661888 87451 -486 -11116 -187388
832428507166876672 86537 -1013 -11481 -187341
832428507185091328 85440 -1575 -11895 -187320
832428507203305984 84513 -2010 -12236 -187326
832428507221520640 84081 -2227 -12421 -187339
832428507239735296 83953 -2328 -12526 -187347
832428507257949952 84274 -2224 -12398 -187375
832428507276164608 84691 -1973 -12197 -187341
832428507294379264 85197 -1724 -12011 -187328
832428507312593920 85678 -1444 -11738 -187352
832428507330808576 86072 -1330 -11692 -187387
832428507349023360 86167 -1232 -11622 -187355
832428507367238016 86223 -1158 -11636 -187395
832428507385452672 86433 -997 -11555 -187379
832428507403667328 86889 -830 -11436 -187408
832428507421881984 87518 -549 -11119 -187349
832428507440096640 87966 -237 -10962 -187390
832428507458311296 88050 -134 -10885 -187352
832428507476525952 87679 -424 -11079 -187357
832428507494740684 86731 -853 -11353 -187405
832428507512955392 85816 -1377 -11771 -187391
832428507531170048 84966 -1799 -12138 -187360
832428507549384704 84301 -2179 -12369 -187368
832428507567599360 84024 -2315 -12513 -187375
832428507585814016 84094 -2313 -12485 -187339
832428507604028672 84419 -2105 -12369 -187463
832428507622243456 84997 -1851 -12131 -187377
832428507640458112 85488 -1545 -11891 -187326
832428507658672768 85810 -1437 -11810 -187383
832428507676887424 86022 -1250 -11690 -187443
832428507695102080 86212 -1222 -11625 -187445
832428507713316736 86405 -1072 -11512 -187376
832428507731531392 86845 -809 -11300 -187376
832428507749746048 87354 -564 -11184 -187396
832428507767960704 87851 -333 -10962 -187419
832428507786175360 87930 -268 -10981 -187372
832428507804390144 87696 -415 -11050 -187378
832428507822604800 87097 -703 -11268 -187369
832428507840819456 86095 -1188 -11615 -187409
832428507859034112 85172 -1632 -11973 -187368
832428507877248768 84447 -2101 -12323 -187343
832428507895463424 84119 -2240 -12397 -187350
832428507913678080 84164 -2264 -12369 -187388
832428507931892736 84438 -2130 -12245 -187340
832428507950107392 84917 -1877 -12188 -187358
832428507968322048 85347 -1668 -12017 -187435
832428507986536832 85644 -1483 -11864 -187339
832428508004751488 85846 -1394 -11761 -187351
832428508022966144 86104 -1239 -11606 -187312
832428508041180800 86419 -1153 -11556 -187327
832428508059395456 86787 -930 -11360 -187333
832428508077610112 87195 -719 -11248 -187393
832428508095824768 87818 -329 -11012 -187334
832428508114039424 88210 -122 -10857 -187377
832428508132254076 88068 -237 -10923 -187363
832428508150467968 87391 -587 -11151 -187330
832428508168681856 86355 -1096 -11508 -187346
832428508186895744 85308 -1642 -11858 -187324
832428508205109632 84593 -2109 -12225 -187358
832428508223323520 84205 -2243 -12378 -187322
832428508241537408 84067 -2309 -12398 -187389
832428508259751296 84430 -2179 -12310 -187325
832428508277965184 84724 -1931 -12221 -187406
832428508296179072 85258 -1697 -11944 -187415
832428508314392960 85677 -1510 -11857 -187379
832428508332606848 85929 -1347 -11769 -187407
832428508350820736 86031 -1296 -11698 -187415
832428508369034624 86172 -1283 -11639 -187428
832428508387248512 86511 -1057 -11580 -187405
832428508405462272 86922 -781 -11350 -187339
832428508423676160 87595 -444 -11069 -187372
832428508441890048 88010 -216 -10916 -187317
832428508460103936 88085 -228 -10927 -187359
832428508478317824 87601 -442 -11090 -187379
832428508496531712 86851 -849 -11384 -187422
832428508514745600 85795 -1369 -11748 -187420
832428508532959488 84857 -1833 -12049 -187421
832428508551173376 84212 -2206 -12340 -187395
832428508569387264 83843 -2482 -12504 -187395
832428508587601152 84039 -2320 -12402 -187372
832428508605815040 84532 -2035 -12251 -187373
832428508624028928 85063 -1754 -12038 -187352
832428508642242816 85571 -1534 -11865 -187351
832428508660456704 85863 -1354 -11771 -187380
832428508678670592 86157 -1231 -11666 -187363
832428508696884480 86287 -1178 -11627 -187420
832428508715098368 86548 -1044 -11505 -187316
832428508733312256 86895 -839 -11369 -187362
832428508751526144 87306 -663 -11192 -187351
832428508769739994 87803 -350 -10989 -187369
832428508787954048 88034 -232 -10874 -187334
832428508806168064 87720 -414 -11073 -187332
832428508824382080 87053 -748 -11295 -187351
832428508842596096 86102 -1241 -11586 -187393
832428508860810112 85224 -1729 -11967 -187360
832428508879024128 84562 -1997 -12177 -187343
832428508897238144 84179 -2213 -12375 -187347
832428508915452160 84165 -2246 -12362 -187386
832428508933666176 84469 -2060 -12221 -187349
832428508951880192 84827 -1835 -12161 -187390
832428508970094208 85308 -1678 -11983 -187326
832428508988308224 85653 -1463 -11857 -187345
832428509006522240 85909 -1310 -11734 -187401
832428509024736256 86178 -1229 -11627 -187393
832428509042950272 86405 -1068 -11597 -187367
832428509061164288 86838 -892 -11391 -187319
832428509079378304 87317 -632 -11193 -187329
832428509097592320 87901 -282 -10992 -187355
832428509115806336 88148 -192 -10903 -187355
832428509134020352 87957 -281 -10918 -187367
832428509152234368 87107 -746 -11268 -187339
832428509170448384 86229 -1174 -11568 -187357
832428509188662400 85301 -1653 -11896 -187364
832428509206876416 84579 -1986 -12195 -187359
832428509225090432 84113 -2260 -12437 -187379
832428509243304448 84137 -2300 -12393 -187388
832428509261518464 84358 -2113 -12358 -187396
832428509279732480 84843 -1871 -12097 -187363
832428509297946496 85275 -1666 -11940 -187363
832428509316160512 85657 -1464 -11838 -187358
832428509334374528 85879 -1374 -11764 -187369
832428509352588544 85960 -1305 -11743 -187408
832428509370802560 86170 -1191 -11676 -187380
832428509389016576 86525 -980 -11498 -187390
832428509407230498 87066 -750 -11327 -187383
832428509425443968 87635 -399 -11053 -187394
832428509443657472 88119 -187 -10924 -187357
832428509461870976 88130 -210 -10937 -187411
832428509480084480 87533 -497 -11033 -187355
832428509498297984 86647 -919 -11406 -187377
832428509516511488 85627 -1465 -11846 -187351
832428509534724864 84749 -1898 -12173 -187359
832428509552938368 84088 -2255 -12384 -187409
832428509571151872 83950 -2360 -12509 -187415
832428509589365376 84194 -2269 -12433 -187409
832428509607578880 84556 -2033 -12259 -187389
832428509625792384 85132 -1714 -12030 -187398
832428509644005888 85532 -1534 -11858 -187371
832428509662219392 85928 -1375 -11651 -187376
832428509680432896 86100 -1232 -11681 -187391
832428509698646400 86292 -1163 -11607 -187375
832428509716859776 86469 -1046 -11528 -187360
832428509735073280 86871 -863 -11329 -187389
832428509753286784 87267 -593 -11242 -187439
832428509771500288 87827 -270 -11008 -187370
832428509789713792 87975 -252 -10989 -187376
832428509807927296 87639 -418 -11101 -187407
832428509826140800 86971 -758 -11333 -187374
832428509844354304 86014 -1286 -11714 -187378
832428509862567808 85148 -1718 -12011 -187371
832428509880781312 84400 -2139 -12302 -187367
832428509898994688 84093 -2306 -12417 -187414
832428509917208192 83995 -2312 -12415 -187427
832428509935421696 84358 -2115 -12325 -187317
832428509953635200 84857 -1849 -12163 -187345
832428509971848704 85437 -1627 -11931 -187396
832428509990062208 85796 -1414 -11774 -187323
832428510008275712 85991 -1321 -11707 -187366
832428510026489216 86143 -1210 -11653 -187390
832428510044702692 86350 -1077 -11527 -187364
832428510062918144 86837 -866 -11403 -187366
832428510081133568 87257 -617 -11205 -187391
832428510099348992 87873 -403 -11035 -187364
832428510117564416 87986 -248 -10957 -187428
832428510135779840 87718 -365 -11074 -187368
832428510153995136 87142 -704 -11295 -187369
832428510172210560 86194 -1215 -11615 -187378
832428510190425984 85220 -1702 -11988 -187404
832428510208641408 84519 -2097 -12288 -187411
832428510226856832 84133 -2248 -12436 -187440
832428510245072256 84188 -2332 -12392 -187376
832428510263287680 84464 -2055 -12271 -187337
832428510281503104 84838 -1927 -12117 -187401
832428510299718528 85270 -1596 -11944 -187312
832428510317933824 85605 -1464 -11837 -187364
832428510336149248 85807 -1364 -11768 -187327
832428510354364672 86102 -1199 -11617 -187310
832428510372580096 86236 -1157 -11632 -187442
832428510390795520 86594 -971 -11477 -187375
832428510409010944 87203 -648 -11253 -187372
832428510427226368 87769 -370 -10961 -187371
832428510445441792 88209 -78 -10809 -187391
832428510463657216 88168 -94 -10786 -187320
832428510481872512 87445 -519 -11101 -187336
832428510500087936 86526 -971 -11396 -187321
832428510518303360 85506 -1543 -11816 -187347
832428510536518784 84589 -2033 -12204 -187380
832428510554734208 84141 -2274 -12458 -187379
832428510572949632 84043 -2293 -12419 -187355
832428510591165056 84291 -2156 -12340 -187343
832428510609380480 84738 -1941 -12183 -187378
832428510627595776 85229 -1656 -12004 -187333
832428510645811200 85751 -1494 -11794 -187294
832428510664026624 85998 -1328 -11671 -187320
832428510682242024 86145 -1203 -11646 -187334
832428510700455936 86248 -1146 -11601 -187352
832428510718669824 86474 -1029 -11464 -187354
832428510736883840 86905 -816 -11324 -187364
832428510755097728 87477 -542 -11137 -187374
832428510773311616 88049 -196 -10873 -187319
832428510791525632 88150 -168 -10882 -187319
832428510809739520 87703 -367 -11025 -187368
832428510827953408 86936 -857 -11362 -187378
832428510846167296 85974 -1262 -11669 -187341
832428510864381312 85033 -1760 -12008 -187320
832428510882595200 84363 -2091 -12359 -187355
832428510900809088 84017 -2348 -12470 -187364
832428510919023104 84104 -2303 -12455 -187397
832428510937236992 84490 -2073 -12276 -187335
832428510955450880 85016 -1789 -12060 -187298
832428510973664896 85486 -1559 -11881 -187318
832428510991878784 85831 -1370 -11798 -187322
832428511010092672 86073 -1210 -11681 -187248
832428511028306560 86214 -1170 -11624 -187284
832428511046520576 86513 -994 -11512 -187290
832428511064734464 86846 -807 -11320 -187352
832428511082948352 87311 -621 -11176 -187317
832428511101162368 87811 -302 -11025 -187359
832428511119376256 87978 -244 -10917 -187366
832428511137590144 87742 -363 -11079 -187352
832428511155804160 87083 -707 -11300 -187333
832428511174018048 86135 -1187 -11637 -187390
832428511192231936 85200 -1666 -11976 -187375
832428511210445952 84457 -2044 -12268 -187326
832428511228659840 84198 -2180 -12333 -187300
832428511246873728 84210 -2154 -12395 -187335
832428511265087616 84525 -2004 -12274 -187320
832428511283301632 84915 -1807 -12093 -187317
832428511301515520 85297 -1628 -11971 -187334
832428511319729470 85632 -1458 -11848 -187332
832428511337943552 85852 -1394 -11749 -187360
832428511356157696 86173 -1226 -11649 -187308
832428511374371712 86397 -1074 -11554 -187295
832428511392585856 86754 -916 -11409 -187370
832428511410800000 87245 -595 -11167 -187320
832428511429014016 87834 -233 -10969 -187376
832428511447228160 88267 -82 -10801 -187326
832428511465442304 88155 -197 -10873 -187324
832428511483656320 87442 -549 -11150 -187342
832428511501870464 86423 -1066 -11489 -187325
832428511520084608 85398 -1584 -11914 -187286
832428511538298624 84702 -1921 -12159 -187302
832428511556512768 84263 -2137 -12336 -187288
832428511574726912 84043 -2236 -12368 -187355
832428511592940928 84339 -2120 -12322 -187295
832428511611155072 84804 -1898 -12113 -187340
832428511629369216 85321 -1583 -11967 -187337
832428511647583232 85715 -1350 -11784 -187330
832428511665797376 85980 -1170 -11688 -187312
832428511684011520 86000 -1191 -11640 -187287
832428511702225536 86149 -1132 -11682 -187340
832428511720439680 86536 -1012 -11504 -187343
832428511738653824 86967 -751 -11367 -187361
832428511756867840 87589 -430 -11049 -187363
832428511775081984 88093 -242 -10892 -187368
832428511793296128 88078 -132 -10908 -187339
832428511811510144 87630 -383 -11053 -187308
832428511829724288 86803 -789 -11372 -187303
832428511847938432 85778 -1358 -11702 -187350
832428511866152448 85008 -1828 -12012 -187341
832428511884366592 84288 -2182 -12324 -187302
832428511902580736 83949 -2332 -12464 -187309
832428511920794752 84136 -2216 -12418 -187324
832428511939008896 84584 -2008 -12231 -187340
832428511957223024 85124 -1722 -11966 -187292
832428511975437440 85526 -1497 -11800 -187295
832428511993651840 85790 -1371 -11714 -187305
832428512011866112 86136 -1239 -11614 -187357
832428512030080512 86234 -1152 -11589 -187362
832428512048294912 86594 -949 -11402 -187300
832428512066509312 86929 -771 -11308 -187270
832428512084723584 87377 -591 -11140 -187321
832428512102937984 87753 -386 -10988 -187295
832428512121152384 88035 -282 -10920 -187333
832428512139366656 87726 -355 -11049 -187358
832428512157581056 87027 -719 -11298 -187338
832428512175795456 86033 -1232 -11696 -187337
832428512194009856 85065 -1779 -12029 -187346
832428512212224128 84450 -2106 -12303 -187380
832428512230438528 84173 -2279 -12479 -187394
832428512248652928 84196 -2226 -12379 -187354
832428512266867200 84531 -2064 -12199 -187324
832428512285081600 84846 -1836 -12098 -187332
832428512303296000 85281 -1572 -11887 -187334
832428512321510400 85691 -1380 -11785 -187359
832428512339724672 86046 -1214 -11561 -187292
832428512357939072 86127 -1141 -11607 -187313
832428512376153472 86468 -1013 -11530 -187325
832428512394367744 86764 -839 -11406 -187363
832428512412582144 87326 -569 -11151 -187345
832428512430796544 87960 -289 -10968 -187294
832428512449010944 88216 -135 -10874 -187329
832428512467225216 87961 -211 -10895 -187325
832428512485439616 87189 -623 -11247 -187389
832428512503654016 86374 -1098 -11534 -187345
832428512521868288 85361 -1634 -11963 -187301
832428512540082688 84575 -2034 -12232 -187300
832428512558297088 84155 -2250 -12437 -187405
