TIMESTAMP PPG0 PPG1 PPG2 AMBIENT
832428590786211584 86093 -767 -11345 -187354
832428590804393344 86026 -835 -11415 -187349
832428590822575232 85957 -912 -11464 -187388
832428590840756992 86038 -832 -11401 -187351
832428590858938880 86101 -790 -11403 -187376
832428590877120640 86144 -796 -11409 -187372
832428590895302528 86207 -773 -11401 -187332
832428590913484288 86213 -712 -11345 -187315
832428590931666176 86247 -739 -11282 -187409
832428590949847936 86221 -707 -11374 -187335
832428590968029824 86216 -785 -11355 -187338
832428590986211584 86108 -847 -11406 -187362
832428591004393344 86049 -798 -11423 -187385
832428591022575232 86106 -776 -11385 -187357
832428591040756992 86101 -765 -11411 -187347
832428591058938880 86162 -761 -11369 -187334
832428591077120640 86175 -778 -11353 -187340
832428591095302528 86194 -767 -11349 -187341
832428591113484288 86253 -710 -11265 -187284
832428591131666176 86257 -737 -11335 -187310
832428591149847936 86260 -723 -11347 -187307
832428591168029824 86256 -702 -11347 -187282
832428591186211584 86122 -794 -11390 -187347
832428591204393344 86018 -835 -11448 -187340
832428591222575232 86084 -829 -11380 -187301
832428591240756992 86090 -840 -11405 -187352
832428591258938880 86071 -810 -11445 -187362
832428591277120640 86121 -789 -11415 -187347
832428591295302528 86158 -771 -11366 -187302
832428591313484288 86203 -728 -11380 -187367
832428591331666176 86189 -755 -11392 -187362
832428591349847936 86189 -743 -11371 -187319
832428591368029824 86056 -819 -11401 -187342
832428591386211584 86030 -817 -11430 -187337
832428591404393344 85962 -883 -11424 -187388
832428591422575232 85980 -848 -11378 -187438
832428591440756992 86080 -804 -11403 -187388
832428591458938880 86091 -801 -11353 -187337
832428591477120640 86146 -833 -11325 -187321
832428591495302528 86140 -813 -11316 -187347
832428591513484288 86264 -738 -11264 -187363
832428591531666176 86212 -721 -11380 -187339
832428591549847936 86120 -758 -11403 -187394
832428591568029824 86038 -809 -11478 -187406
832428591586211584 85972 -900 -11515 -187437
832428591604393390 86025 -908 -11522 -187398
832428591622606464 86038 -867 -11443 -187423
832428591640819584 86032 -816 -11361 -187414
832428591659032704 86100 -836 -11378 -187380
832428591677245952 86185 -765 -11342 -187384
832428591695459072 86126 -762 -11351 -187368
832428591713672192 86140 -694 -11316 -187376
832428591731885312 86175 -703 -11352 -187343
832428591750098432 86038 -784 -11409 -187413
832428591768311552 86044 -794 -11375 -187436
832428591786524800 86019 -781 -11411 -187395
832428591804737920 86036 -824 -11456 -187401
832428591822951040 86016 -825 -11461 -187454
832428591841164160 86020 -876 -11454 -187380
832428591859377280 86142 -808 -11381 -187381
832428591877590400 86172 -801 -11401 -187377
832428591895803648 86243 -792 -11366 -187417
832428591914016768 86250 -745 -11389 -187389
832428591932229888 86142 -797 -11379 -187447
832428591950443008 86101 -804 -11361 -187446
832428591968656128 85973 -852 -11429 -187379
832428591986869248 85960 -857 -11417 -187372
832428592005082496 85973 -834 -11500 -187471
832428592023295616 86050 -849 -11457 -187434
832428592041508736 86069 -818 -11405 -187426
832428592059721856 86107 -806 -11375 -187372
832428592077934976 86162 -741 -11387 -187400
832428592096148224 86240 -725 -11363 -187334
832428592114361344 86285 -717 -11351 -187347
832428592132574464 86219 -743 -11295 -187333
832428592150787584 86093 -750 -11325 -187346
832428592169000704 86080 -804 -11384 -187395
832428592187213824 85996 -875 -11473 -187328
832428592205427072 86034 -819 -11480 -187412
832428592223640192 86120 -830 -11402 -187361
832428592241853312 86148 -768 -11366 -187347
832428592260066432 86154 -746 -11335 -187377
832428592278279552 86126 -758 -11366 -187396
832428592296492672 86230 -790 -11360 -187358
832428592314705920 86216 -746 -11339 -187361
832428592332919040 86117 -741 -11424 -187351
832428592351132160 86070 -849 -11417 -187408
832428592369345280 85950 -859 -11410 -187420
832428592387558512 85934 -828 -11396 -187330
832428592405772032 85928 -808 -11430 -187368
832428592423985536 86031 -789 -11422 -187325
832428592442198912 86078 -785 -11432 -187373
832428592460412416 86035 -888 -11408 -187395
832428592478625792 86155 -783 -11372 -187374
832428592496839296 86212 -781 -11337 -187324
832428592515052800 86186 -708 -11355 -187354
832428592533266176 86127 -766 -11393 -187417
832428592551479680 86025 -806 -11346 -187393
832428592569693184 85967 -841 -11470 -187425
832428592587906560 86049 -854 -11390 -187362
832428592606120064 86099 -800 -11341 -187367
832428592624333440 86383 -609 -11226 -187367
832428592642546944 86742 -424 -11106 -187344
832428592660760448 87097 -250 -10962 -187339
832428592678973824 87269 -145 -10991 -187375
832428592697187328 87560 -15 -10829 -187319
832428592715400832 87856 88 -10765 -187324
832428592733614208 88184 328 -10593 -187342
832428592751827712 88659 560 -10423 -187358
832428592770041088 89064 830 -10202 -187324
832428592788254592 89264 891 -10202 -187315
832428592806468096 89000 738 -10270 -187336
832428592824681472 88232 312 -10573 -187345
832428592842894976 87304 -174 -10908 -187321
832428592861108480 86426 -636 -11303 -187337
832428592879321856 85742 -1039 -11563 -187337
832428592897535360 85421 -1194 -11669 -187328
832428592915748736 85407 -1216 -11700 -187338
832428592933962240 85730 -997 -11539 -187338
832428592952175744 86135 -809 -11434 -187302
832428592970389120 86593 -587 -11255 -187342
832428592988602624 86886 -406 -11081 -187336
832428593006816000 87216 -243 -11033 -187312
832428593025029504 87419 -105 -10912 -187336
832428593043243008 87628 -22 -10840 -187360
832428593061456384 88079 219 -10619 -187354
832428593079669888 88561 500 -10446 -187372
832428593097883274 89186 825 -10173 -187379
832428593116097792 89495 997 -10043 -187300
832428593134312320 89239 881 -10142 -187349
832428593152526848 88469 439 -10412 -187360
832428593170741376 87492 -27 -10848 -187377
832428593188955904 86631 -468 -11119 -187325
832428593207170432 85878 -891 -11482 -187383
832428593225384960 85392 -1165 -11639 -187381
832428593243599616 85333 -1208 -11632 -187385
832428593261814144 85654 -1017 -11569 -187361
832428593280028672 86095 -810 -11370 -187379
832428593298243200 86607 -490 -11149 -187329
832428593316457728 86934 -276 -11062 -187312
832428593334672256 87131 -252 -11008 -187342
832428593352886784 87270 -152 -10972 -187354
832428593371101312 87481 -106 -10893 -187340
832428593389315840 87797 73 -10772 -187358
832428593407530368 88351 355 -10514 -187320
832428593425744896 88875 617 -10367 -187328
832428593443959424 89316 853 -10140 -187318
832428593462173952 89257 850 -10093 -187381
832428593480388480 88841 624 -10343 -187374
832428593498603136 87997 201 -10661 -187372
832428593516817664 86959 -301 -11012 -187361
832428593535032192 86055 -785 -11417 -187342
832428593553246720 85386 -1160 -11664 -187412
832428593571461248 85236 -1307 -11728 -187356
832428593589675776 85480 -1097 -11665 -187341
832428593607890304 85884 -901 -11488 -187281
832428593626104832 86414 -659 -11277 -187302
832428593644319360 86809 -426 -11139 -187381
832428593662533888 87145 -218 -10951 -187330
832428593680748416 87364 -67 -10892 -187341
832428593698962944 87553 -49 -10829 -187323
832428593717177472 87753 99 -10758 -187330
832428593735392088 88088 242 -10653 -187409
832428593753605248 88606 499 -10488 -187397
832428593771818368 89159 780 -10286 -187391
832428593790031488 89366 961 -10172 -187347
832428593808244736 89028 733 -10316 -187364
832428593826457856 88240 359 -10569 -187354
832428593844670976 87267 -210 -10992 -187313
832428593862884096 86432 -631 -11208 -187302
832428593881097216 85733 -1012 -11506 -187352
832428593899310336 85428 -1130 -11598 -187304
832428593917523584 85416 -1077 -11607 -187344
832428593935736704 85701 -905 -11487 -187388
832428593953949824 86094 -773 -11350 -187398
832428593972162944 86657 -487 -11112 -187358
832428593990376064 86974 -314 -10984 -187377
832428594008589184 87282 -146 -10960 -187337
832428594026802432 87399 -101 -10867 -187340
832428594045015552 87681 62 -10808 -187356
832428594063228672 88161 270 -10611 -187337
832428594081441792 88656 539 -10374 -187304
832428594099654912 89250 915 -10141 -187401
832428594117868032 89462 998 -10065 -187337
832428594136081280 89139 836 -10201 -187302
832428594154294400 88313 362 -10519 -187362
832428594172507520 87488 -90 -10911 -187392
832428594190720640 86550 -506 -11206 -187335
832428594208933760 85808 -987 -11492 -187308
832428594227147008 85330 -1222 -11663 -187379
832428594245360128 85316 -1189 -11647 -187349
832428594263573248 85704 -1043 -11512 -187329
832428594281786368 86104 -737 -11304 -187362
832428594299999488 86568 -508 -11230 -187311
832428594318212608 86929 -337 -11054 -187323
832428594336425856 87129 -289 -11022 -187323
832428594354638976 87255 -132 -10998 -187391
832428594372852066 87537 -23 -10859 -187351
832428594391065216 87933 211 -10643 -187352
832428594409278336 88358 473 -10516 -187342
832428594427491456 88954 711 -10278 -187326
832428594445704704 89383 900 -10132 -187354
832428594463917824 89363 881 -10101 -187362
832428594482130944 88787 724 -10310 -187371
832428594500344064 87868 199 -10678 -187349
832428594518557184 86798 -382 -11091 -187332
832428594536770304 85872 -865 -11404 -187338
832428594554983552 85355 -1132 -11610 -187317
832428594573196672 85265 -1198 -11694 -187298
832428594591409792 85490 -1047 -11579 -187312
832428594609622912 85934 -891 -11464 -187338
832428594627836032 86430 -567 -11258 -187355
832428594646049152 86910 -390 -11134 -187418
832428594664262400 87230 -162 -10965 -187300
832428594682475520 87374 -144 -10865 -187396
832428594700688640 87542 -39 -10871 -187391
832428594718901760 87774 119 -10764 -187337
832428594737114880 88167 333 -10594 -187369
832428594755328128 88718 516 -10418 -187398
832428594773541248 89291 897 -10183 -187373
832428594791754368 89392 948 -10115 -187375
832428594809967488 89025 751 -10202 -187337
832428594828180608 88184 249 -10552 -187329
832428594846393728 87192 -222 -10875 -187307
832428594864606976 86325 -686 -11190 -187270
832428594882820096 85639 -1055 -11542 -187315
832428594901033216 85295 -1171 -11676 -187361
832428594919246336 85371 -1209 -11646 -187281
832428594937459456 85665 -979 -11503 -187320
832428594955672576 86211 -749 -11332 -187307
832428594973885824 86688 -464 -11118 -187311
832428594992098944 86985 -357 -11084 -187363
832428595010312052 87270 -216 -10979 -187346
832428595028524800 87473 -120 -10867 -187368
832428595046737536 87733 38 -10800 -187364
832428595064950400 88188 349 -10584 -187319
832428595083163136 88659 557 -10416 -187329
832428595101376000 89196 863 -10230 -187345
832428595119588736 89330 938 -10189 -187346
832428595137801600 89034 726 -10267 -187359
832428595156014336 88292 386 -10511 -187342
832428595174227200 87460 -154 -10874 -187380
832428595192439936 86474 -615 -11248 -187300
832428595210652800 85766 -982 -11473 -187378
832428595228865536 85405 -1144 -11597 -187401
832428595247078272 85457 -1131 -11605 -187358
832428595265291136 85765 -884 -11505 -187296
832428595283503872 86118 -714 -11369 -187310
832428595301716736 86640 -501 -11168 -187311
832428595319929472 86893 -369 -11025 -187330
832428595338142336 87156 -263 -10961 -187317
832428595356355072 87355 -148 -10933 -187326
832428595374567936 87620 -10 -10843 -187376
832428595392780672 88022 218 -10647 -187390
832428595410993408 88506 424 -10489 -187394
832428595429206272 88978 657 -10294 -187385
832428595447419008 89382 951 -10104 -187356
832428595465631872 89351 861 -10076 -187291
832428595483844608 88637 531 -10412 -187330
832428595502057472 87692 38 -10747 -187302
832428595520270208 86627 -471 -11168 -187370
832428595538483072 85865 -955 -11476 -187335
832428595556695808 85410 -1181 -11648 -187324
832428595574908672 85336 -1205 -11714 -187337
832428595593121408 85523 -1045 -11636 -187333
832428595611334144 85966 -859 -11451 -187338
832428595629547008 86560 -573 -11240 -187329
832428595647759830 86969 -389 -11067 -187329
832428595665972480 87186 -235 -10988 -187410
832428595684185088 87388 -79 -10879 -187383
832428595702397696 87466 -14 -10861 -187376
832428595720610304 87716 71 -10748 -187340
832428595738822912 88150 297 -10589 -187342
832428595757035520 88780 671 -10323 -187304
832428595775248256 89318 909 -10107 -187366
832428595793460864 89439 942 -10112 -187326
832428595811673472 88936 684 -10329 -187339
832428595829886080 88138 387 -10554 -187389
832428595848098688 87191 -142 -10915 -187350
832428595866311296 86209 -644 -11283 -187351
832428595884523904 85566 -966 -11544 -187269
832428595902736512 85299 -1195 -11647 -187313
832428595920949120 85340 -1295 -11731 -187317
832428595939161728 85782 -933 -11500 -187318
832428595957374336 86252 -663 -11295 -187325
832428595975587072 86777 -390 -11067 -187286
832428595993799680 87081 -319 -11035 -187364
832428596012012288 87296 -142 -10930 -187349
832428596030224896 87539 -54 -10825 -187356
832428596048437504 87744 97 -10681 -187344
832428596066650112 88140 290 -10555 -187346
832428596084862720 88695 589 -10369 -187330
832428596103075328 89242 906 -10197 -187363
832428596121287936 89377 927 -10116 -187395
832428596139500544 89128 812 -10234 -187376
832428596157713152 88367 390 -10473 -187351
832428596175925760 87430 -128 -10888 -187364
832428596194138496 86466 -587 -11188 -187340
832428596212351104 85736 -932 -11505 -187404
832428596230563712 85443 -1091 -11659 -187375
832428596248776320 85468 -1149 -11596 -187373
832428596266988928 85716 -996 -11556 -187397
832428596285201506 86169 -717 -11371 -187329
832428596303413120 86583 -509 -11230 -187350
832428596321624704 86979 -294 -11099 -187379
832428596339836288 87152 -170 -10992 -187355
832428596358047872 87374 -83 -10879 -187339
832428596376259456 87663 35 -10708 -187310
832428596394471040 88113 247 -10581 -187296
832428596412682496 88494 495 -10387 -187288
832428596430894080 89084 780 -10184 -187378
832428596449105664 89499 1058 -10048 -187298
832428596467317248 89268 879 -10143 -187319
832428596485528832 88628 549 -10397 -187265
832428596503740416 87616 14 -10725 -187338
832428596521952000 86647 -487 -11144 -187359
832428596540163584 85865 -894 -11469 -187355
832428596558375168 85356 -1177 -11637 -187374
832428596576586752 85337 -1118 -11634 -187323
832428596594798336 85650 -1013 -11538 -187320
832428596613009792 86084 -748 -11356 -187330
832428596631221376 86627 -518 -11198 -187374
832428596649432960 86948 -367 -11115 -187387
832428596667644544 87216 -216 -10893 -187325
832428596685856128 87328 -142 -10877 -187333
832428596704067712 87436 -67 -10808 -187334
832428596722279296 87798 96 -10697 -187322
832428596740490880 88295 399 -10551 -187307
832428596758702464 88921 716 -10318 -187286
832428596776914048 89378 924 -10128 -187355
832428596795125632 89374 945 -10042 -187321
832428596813337216 88951 775 -10213 -187290
832428596831548672 88159 299 -10617 -187310
832428596849760256 87029 -282 -11034 -187327
832428596867971840 86080 -796 -11381 -187349
832428596886183424 85474 -1174 -11595 -187330
832428596904395008 85230 -1229 -11738 -187354
832428596922606548 85395 -1207 -11674 -187355
832428596940818688 85802 -930 -11456 -187319
832428596959030784 86382 -617 -11301 -187307
832428596977242880 86818 -402 -11112 -187371
832428596995454976 87119 -235 -10978 -187378
832428597013667072 87380 -80 -10880 -187358
832428597031879168 87594 14 -10807 -187392
832428597050091264 87776 159 -10708 -187393
832428597068303360 88226 295 -10558 -187386
832428597086515456 88669 569 -10316 -187352
832428597104727552 89238 844 -10189 -187351
832428597122939648 89381 933 -10140 -187310
832428597141151744 89012 773 -10217 -187315
832428597159363840 88260 307 -10560 -187318
832428597177575936 87329 -166 -10880 -187355
832428597195788032 86373 -643 -11266 -187334
832428597214000128 85769 -887 -11463 -187300
832428597232212224 85325 -1131 -11610 -187359
832428597250424320 85370 -1129 -11603 -187319
832428597268636416 85716 -969 -11498 -187264
832428597286848512 86053 -772 -11423 -187366
832428597305060608 86570 -510 -11257 -187303
832428597323272704 87009 -339 -11069 -187339
832428597341484800 87284 -192 -10978 -187350
832428597359696896 87419 -44 -10850 -187362
832428597377908992 87615 47 -10762 -187316
832428597396121088 88074 217 -10665 -187334
832428597414333184 88639 603 -10404 -187296
832428597432545280 89202 882 -10185 -187307
832428597450757376 89436 967 -10115 -187370
832428597468969472 89141 805 -10243 -187363
832428597487181568 88484 439 -10476 -187376
832428597505393664 87549 -84 -10832 -187327
832428597523605760 86544 -579 -11190 -187376
832428597541817856 85846 -980 -11453 -187313
832428597560029916 85415 -1173 -11626 -187308
832428597578243072 85315 -1149 -11637 -187323
832428597596456192 85706 -1039 -11508 -187326
832428597614669312 86137 -781 -11333 -187369
832428597632882560 86649 -542 -11164 -187327
832428597651095680 86928 -349 -11083 -187396
832428597669308800 87148 -210 -10999 -187342
832428597687521920 87218 -158 -10900 -187303
832428597705735040 87516 -43 -10793 -187315
832428597723948160 87866 191 -10657 -187325
832428597742161408 88430 405 -10468 -187307
832428597760374528 88988 775 -10218 -187312
832428597778587648 89395 974 -10116 -187354
832428597796800768 89437 961 -10086 -187327
832428597815013888 88839 600 -10295 -187380
832428597833227008 87930 129 -10668 -187396
832428597851440256 86817 -347 -11087 -187364
832428597869653376 85878 -878 -11444 -187312
832428597887866496 85400 -1185 -11633 -187347
832428597906079616 85223 -1270 -11720 -187398
832428597924292736 85474 -1138 -11614 -187343
832428597942505984 85898 -952 -11478 -187357
832428597960719104 86388 -649 -11265 -187383
832428597978932224 86856 -429 -11112 -187325
832428597997145344 87179 -233 -10928 -187408
832428598015358464 87447 -60 -10866 -187320
832428598033571584 87552 -6 -10822 -187290
832428598051784832 87784 133 -10709 -187309
832428598069997952 88159 338 -10613 -187344
832428598088211072 88691 531 -10436 -187366
832428598106424192 89262 877 -10141 -187296
832428598124637312 89358 949 -10107 -187370
832428598142850432 89017 711 -10287 -187364
832428598161063680 88181 359 -10565 -187301
832428598179276800 87216 -231 -10937 -187362
832428598197489902 86358 -665 -11248 -187311
832428598215703040 85716 -994 -11501 -187327
832428598233916160 85354 -1135 -11678 -187338
832428598252129280 85326 -1163 -11665 -187327
832428598270342528 85704 -1009 -11546 -187277
832428598288555648 86233 -727 -11368 -187326
832428598306768768 86735 -448 -11121 -187339
832428598324981888 87046 -256 -10993 -187390
832428598343195008 87288 -110 -10964 -187373
832428598361408128 87573 3 -10834 -187315
832428598379621376 87837 132 -10698 -187305
832428598397834496 88244 302 -10619 -187376
832428598416047616 88679 652 -10374 -187317
832428598434260736 89214 857 -10182 -187309
832428598452473856 89391 958 -10114 -187321
832428598470686976 89019 769 -10292 -187311
832428598488900224 88296 399 -10518 -187371
832428598507113344 87481 -47 -10817 -187367
832428598525326464 86476 -605 -11206 -187363
832428598543539584 85739 -993 -11499 -187349
832428598561752704 85366 -1166 -11697 -187342
832428598579965952 85453 -1156 -11627 -187337
832428598598179072 85757 -1021 -11523 -187325
832428598616392192 86213 -765 -11327 -187309
832428598634605312 86564 -590 -11192 -187322
832428598652818432 86874 -341 -11029 -187312
832428598671031552 87032 -310 -11000 -187352
832428598689244800 87254 -146 -10947 -187337
832428598707457920 87620 -14 -10812 -187330
832428598725671040 87946 173 -10694 -187375
832428598743884160 88403 418 -10491 -187366
832428598762097280 88903 742 -10263 -187346
832428598780310400 89413 1018 -10032 -187333
832428598798523648 89353 942 -10121 -187377
832428598816736768 88722 611 -10355 -187324
832428598834949888 87781 120 -10766 -187376
832428598853163008 86686 -468 -11148 -187357
832428598871376128 85886 -895 -11428 -187384
832428598889589248 85393 -1176 -11651 -187351
832428598907802496 85320 -1190 -11708 -187337
832428598926015616 85500 -1082 -11627 -187357
832428598944228736 85924 -895 -11454 -187341
832428598962441856 86480 -595 -11242 -187370
832428598980654976 86969 -324 -11077 -187376
832428598998868096 87254 -198 -10954 -187389
832428599017081344 87364 -105 -10905 -187332
832428599035294464 87507 -38 -10832 -187375
832428599053507584 87673 61 -10794 -187351
832428599071720704 88146 266 -10643 -187398
832428599089933824 88781 585 -10419 -187389
832428599108146944 89242 862 -10212 -187342
832428599126360192 89375 919 -10127 -187349
832428599144573312 88889 646 -10291 -187347
832428599162786432 88115 276 -10632 -187350
832428599180999552 87246 -228 -10974 -187345
832428599199212672 86377 -649 -11248 -187310
832428599217425792 85654 -963 -11529 -187318
832428599235639040 85316 -1156 -11640 -187277
832428599253852160 85319 -1177 -11674 -187298
832428599272065280 85697 -1004 -11574 -187370
832428599290278400 86247 -703 -11339 -187374
832428599308491520 86717 -508 -11154 -187379
832428599326704768 87109 -314 -11001 -187341
832428599344917888 87274 -182 -10914 -187401
832428599363131008 87487 -71 -10800 -187338
832428599381344128 87795 87 -10670 -187316
832428599399557248 88193 334 -10534 -187302
832428599417770368 88608 577 -10395 -187313
832428599435983616 89127 827 -10226 -187307
832428599454196736 89095 787 -10199 -187360
832428599472409866 88897 737 -10310 -187356
832428599490624384 88262 364 -10583 -187323
832428599508838912 87397 -147 -10884 -187343
832428599527053568 86429 -592 -11239 -187329
832428599545268096 85701 -973 -11523 -187341
832428599563482752 85361 -1124 -11712 -187372
832428599581697280 85391 -1113 -11607 -187406
832428599599911808 85696 -1031 -11544 -187390
832428599618126464 86089 -775 -11375 -187359
832428599636340992 86457 -552 -11222 -187355
832428599654555648 86857 -408 -11112 -187354
832428599672770176 87175 -202 -10961 -187356
832428599690984832 87386 -28 -10925 -187327
832428599709199360 87583 43 -10781 -187308
832428599727413888 88035 210 -10607 -187354
832428599745628544 88539 497 -10443 -187347
832428599763843072 89172 797 -10244 -187332
832428599782057728 89522 985 -10040 -187295
832428599800272256 89284 933 -10077 -187319
832428599818486784 88586 537 -10396 -187283
832428599836701440 87591 -13 -10829 -187340
832428599854915968 86553 -522 -11202 -187354
832428599873130624 85819 -917 -11501 -187337
832428599891345152 85400 -1204 -11634 -187360
832428599909559808 85268 -1232 -11614 -187367
832428599927774336 85541 -1074 -11610 -187354
832428599945988864 86033 -828 -11405 -187326
832428599964203520 86558 -560 -11269 -187350
832428599982418048 86951 -353 -11068 -187339
832428600000632704 87192 -241 -11038 -187353
832428600018847232 87284 -131 -10940 -187343
832428600037061760 87425 -124 -10885 -187400
832428600055276416 87787 133 -10736 -187342
832428600073490944 88238 303 -10532 -187355
832428600091705600 88876 635 -10353 -187397
832428600109920208 89335 950 -10151 -187397
832428600128133760 89364 908 -10133 -187388
832428600146347264 88916 648 -10332 -187380
832428600164560640 88080 204 -10665 -187307
832428600182774144 87070 -330 -11027 -187322
832428600200987520 86163 -749 -11329 -187329
832428600219201024 85469 -1078 -11527 -187321
832428600237414400 85238 -1259 -11709 -187321
832428600255627904 85405 -1192 -11664 -187361
832428600273841280 85810 -1012 -11543 -187397
832428600292054784 86340 -666 -11339 -187362
832428600310268288 86792 -391 -11150 -187325
832428600328481664 87200 -233 -10981 -187308
832428600346695168 87409 -117 -10896 -187326
832428600364908544 87609 -24 -10860 -187321
832428600383122048 87878 120 -10691 -187317
832428600401335424 88128 298 -10590 -187298
832428600419548928 88600 490 -10421 -187318
832428600437762432 89072 769 -10233 -187315
832428600455975808 89196 825 -10149 -187362
832428600474189312 88948 694 -10285 -187362
832428600492402688 88308 373 -10535 -187330
832428600510616192 87302 -157 -10876 -187384
832428600528829568 86392 -620 -11245 -187343
832428600547043072 85661 -985 -11505 -187354
832428600565256448 85339 -1201 -11644 -187347
832428600583469952 85342 -1190 -11640 -187370
832428600601683456 85653 -1013 -11538 -187334
832428600619896832 86080 -800 -11440 -187332
832428600638110336 86605 -506 -11216 -187301
832428600656323712 86929 -392 -11107 -187375
832428600674537216 87214 -222 -11006 -187375
832428600692750592 87414 -97 -10888 -187402
832428600710964096 87701 73 -10791 -187293
832428600729177472 88016 165 -10670 -187287
832428600747390874 88580 526 -10420 -187296
832428600765603200 89212 855 -10181 -187270
832428600783815552 89376 875 -10199 -187385
832428600802028032 89079 834 -10206 -187400
832428600820240384 88391 447 -10487 -187344
832428600838452864 87530 -40 -10925 -187304
832428600856665216 86572 -504 -11221 -187329
832428600874877568 85809 -897 -11451 -187296
832428600893090048 85435 -1124 -11607 -187343
832428600911302400 85411 -1120 -11613 -187318
832428600929514752 85722 -1027 -11545 -187310
832428600947727232 86143 -788 -11406 -187283
832428600965939584 86648 -433 -11152 -187287
832428600984152064 86919 -290 -11055 -187373
832428601002364416 87136 -300 -11000 -187350
832428601020576768 87294 -163 -10903 -187318
832428601038789248 87487 -105 -10892 -187381
832428601057001600 87872 115 -10750 -187317
832428601075214080 88366 401 -10521 -187352
832428601093426432 89008 711 -10271 -187358
832428601111638784 89420 944 -10080 -187345
832428601129851264 89439 977 -10104 -187301
832428601148063616 88875 675 -10367 -187347
832428601166275968 87993 248 -10615 -187322
832428601184488448 86917 -329 -11030 -187292
832428601202700800 86002 -795 -11384 -187324
832428601220913280 85386 -1125 -11648 -187397
832428601239125632 85196 -1288 -11687 -187361
832428601257337984 85449 -1157 -11678 -187369
832428601275550464 85885 -905 -11470 -187380
832428601293762816 86438 -619 -11228 -187313
832428601311975296 86876 -385 -11027 -187302
832428601330187648 87269 -279 -10924 -187333
832428601348400000 87447 -130 -10825 -187309
832428601366612480 87509 -54 -10831 -187344
832428601384824920 87849 132 -10673 -187327
832428601403038848 88176 366 -10555 -187347
832428601421252736 88704 553 -10404 -187315
832428601439466624 89238 842 -10183 -187345
832428601457680512 89330 917 -10129 -187362
832428601475894400 88963 710 -10342 -187445
832428601494108288 88220 301 -10557 -187357
832428601512322176 87247 -228 -10960 -187375
832428601530536064 86412 -699 -11270 -187349
832428601548749952 85761 -1012 -11525 -187342
832428601566963840 85400 -1182 -11670 -187302
832428601585177728 85358 -1168 -11662 -187356
832428601603391616 85673 -1048 -11514 -187339
832428601621605504 86172 -764 -11326 -187355
832428601639819392 86590 -573 -11193 -187359
832428601658033152 86996 -307 -11012 -187387
832428601676247040 87224 -162 -10894 -187388
832428601694460928 87471 -68 -10817 -187327
832428601712674816 87699 66 -10770 -187333
832428601730888704 88163 329 -10611 -187287
832428601749102592 88590 546 -10476 -187341
832428601767316480 89121 735 -10271 -187329
832428601785530368 89346 965 -10140 -187326
832428601803744256 89106 803 -10200 -187320
832428601821958144 88386 381 -10503 -187330
832428601840172032 87454 -118 -10817 -187346
832428601858385920 86526 -614 -11227 -187301
832428601876599808 85838 -943 -11461 -187294
832428601894813696 85381 -1109 -11618 -187361
832428601913027584 85473 -1173 -11579 -187397
832428601931241472 85775 -941 -11417 -187329
832428601949455360 86123 -742 -11353 -187347
832428601967669248 86583 -503 -11145 -187303
832428601985883136 86912 -361 -11035 -187301
832428602004097024 87074 -301 -10993 -187340
832428602022310838 87311 -186 -10889 -187306
832428602040523904 87521 -30 -10859 -187317
832428602058737024 87960 149 -10688 -187318
832428602076950144 88436 399 -10492 -187327
832428602095163392 88973 728 -10293 -187295
832428602113376512 89462 933 -10117 -187320
832428602131589632 89415 939 -10131 -187368
832428602149802752 88748 620 -10367 -187357
832428602168015872 87773 129 -10736 -187377
832428602186228992 86688 -429 -11123 -187327
832428602204442240 85808 -956 -11473 -187332
832428602222655360 85366 -1154 -11663 -187311
832428602240868480 85352 -1214 -11711 -187328
832428602259081600 85556 -1126 -11617 -187323
832428602277294720 86005 -879 -11486 -187317
832428602295507840 86480 -611 -11189 -187323
832428602313721088 86888 -337 -11038 -187298
832428602331934208 87182 -167 -10892 -187321
832428602350147328 87323 -102 -10874 -187334
832428602368360448 87470 -99 -10849 -187360
832428602386573568 87736 51 -10737 -187343
832428602404786816 88170 269 -10610 -187287
832428602422999936 88779 586 -10406 -187292
832428602441213056 89251 876 -10190 -187335
832428602459426176 89308 910 -10194 -187358
832428602477639296 88949 694 -10348 -187333
832428602495852416 88129 301 -10599 -187367
832428602514065664 87214 -238 -10977 -187321
832428602532278784 86228 -710 -11282 -187330
832428602550491904 85600 -989 -11523 -187277
832428602568705024 85272 -1183 -11703 -187301
832428602586918144 85380 -1191 -11634 -187274
832428602605131264 85723 -943 -11500 -187312
832428602623344512 86302 -726 -11309 -187324
832428602641557632 86786 -446 -11168 -187362
832428602659770824 87102 -261 -11002 -187372
832428602677984384 87327 -135 -10839 -187326
832428602696197888 87558 -78 -10792 -187337
832428602714411392 87806 76 -10776 -187362
832428602732624896 88194 307 -10585 -187273
832428602750838400 88589 531 -10435 -187343
832428602769051904 89163 892 -10187 -187311
832428602787265280 89294 906 -10128 -187275
832428602805478784 89033 746 -10272 -187303
832428602823692288 88344 362 -10515 -187300
832428602841905792 87322 -167 -10867 -187318
832428602860119296 86429 -630 -11234 -187325
832428602878332800 85756 -961 -11497 -187311
832428602896546304 85474 -1096 -11630 -187367
832428602914759808 85483 -1131 -11592 -187338
832428602932973312 85742 -962 -11530 -187361
832428602951186816 86204 -798 -11316 -187343
832428602969400192 86525 -579 -11206 -187371
832428602987613696 86836 -363 -11130 -187318
832428603005827200 87139 -195 -11005 -187287
832428603024040704 87343 -103 -10945 -187335
832428603042254208 87626 -16 -10825 -187361
832428603060467712 87983 114 -10682 -187384
832428603078681216 88494 472 -10406 -187295
832428603096894720 89177 862 -10152 -187359
832428603115108224 89486 1067 -10035 -187321
832428603133321728 89273 958 -10135 -187315
832428603151535104 88596 546 -10391 -187398
832428603169748608 87600 51 -10766 -187349
832428603187962112 86622 -546 -11171 -187334
832428603206175616 85869 -947 -11494 -187305
832428603224389120 85322 -1212 -11691 -187366
832428603242602624 85171 -1231 -11721 -187342
832428603260816128 85489 -1053 -11558 -187384
832428603279029632 85992 -824 -11406 -187325
832428603297243018 86567 -528 -11167 -187361
832428603315455744 86976 -328 -11005 -187410
832428603333668480 87144 -209 -10970 -187354
832428603351881344 87280 -143 -10907 -187315
832428603370094080 87434 -85 -10874 -187309
832428603388306944 87893 165 -10685 -187264
832428603406519680 88403 376 -10557 -187250
832428603424732544 88913 690 -10296 -187325
832428603442945280 89302 894 -10170 -187321
832428603461158144 89335 910 -10086 -187296
832428603479370880 88829 679 -10311 -187339
832428603497583744 88078 295 -10543 -187318
832428603515796480 87104 -237 -10989 -187332
832428603534009216 86191 -751 -11302 -187350
832428603552222080 85511 -1127 -11573 -187325
832428603570434816 85172 -1287 -11722 -187338
832428603588647680 85368 -1117 -11595 -187325
832428603606860416 85807 -925 -11503 -187352
832428603625073280 86409 -662 -11295 -187343
832428603643286016 86787 -540 -11102 -187335
832428603661498880 87099 -332 -10985 -187316
832428603679711616 87369 -203 -10929 -187305
832428603697924352 87634 -55 -10856 -187327
832428603716137216 87813 82 -10749 -187349
832428603734349952 88104 248 -10609 -187375
832428603752562816 88610 550 -10399 -187355
832428603770775552 89083 769 -10210 -187316
832428603788988416 89204 854 -10195 -187350
832428603807201152 88963 702 -10275 -187317
832428603825414016 88266 338 -10527 -187361
832428603843626752 87250 -210 -10915 -187332
832428603861839616 86305 -700 -11288 -187324
832428603880052352 85768 -1062 -11472 -187353
832428603898265088 85449 -1154 -11576 -187301
832428603916477952 85494 -1108 -11625 -187282
832428603934690796 85694 -973 -11537 -187296
832428603952903936 86098 -757 -11398 -187351
832428603971117056 86492 -531 -11176 -187276
832428603989330176 86911 -388 -11050 -187343
832428604007543424 87214 -217 -10941 -187349
832428604025756544 87401 -91 -10852 -187323
832428604043969664 87651 91 -10772 -187387
832428604062182784 88047 212 -10643 -187317
832428604080395904 88629 524 -10438 -187332
832428604098609024 89247 865 -10200 -187402
832428604116822272 89453 1017 -10055 -187364
832428604135035392 89226 859 -10125 -187346
832428604153248512 88396 521 -10448 -187333
832428604171461632 87556 -13 -10804 -187346
832428604189674752 86612 -521 -11239 -187310
832428604207887872 85895 -903 -11422 -187301
832428604226101120 85432 -1156 -11645 -187334
832428604244314240 85449 -1180 -11673 -187315
832428604262527360 85622 -1095 -11606 -187386
832428604280740480 86117 -830 -11381 -187328
832428604298953600 86636 -556 -11154 -187353
832428604317166720 86946 -353 -11030 -187380
832428604335379968 87208 -193 -10946 -187378
832428604353593088 87275 -171 -10945 -187401
832428604371806208 87502 10 -10812 -187403
832428604390019328 87884 137 -10677 -187387
832428604408232448 88367 397 -10540 -187352
832428604426445696 88956 705 -10302 -187361
832428604444658816 89356 894 -10133 -187309
832428604462871936 89448 905 -10130 -187322
832428604481085056 88885 694 -10322 -187313
832428604499298176 88029 223 -10626 -187313
832428604517511296 86954 -312 -11050 -187281
832428604535724544 86014 -818 -11370 -187308
832428604553937664 85312 -1159 -11679 -187357
832428604572150774 85225 -1240 -11742 -187338
832428604590364288 85397 -1136 -11654 -187368
832428604608577792 85836 -942 -11501 -187370
832428604626791168 86358 -674 -11290 -187325
832428604645004672 86722 -498 -11134 -187333
832428604663218048 87093 -248 -10998 -187340
832428604681431552 87423 -106 -10840 -187326
832428604699644928 87524 -26 -10845 -187345
832428604717858432 87811 83 -10746 -187305
832428604736071808 88139 246 -10607 -187362
832428604754285312 88648 571 -10397 -187302
832428604772498816 89244 836 -10251 -187332
832428604790712192 89381 948 -10177 -187335
832428604808925696 89002 755 -10314 -187372
832428604827139072 88220 345 -10596 -187363
832428604845352576 87195 -258 -11019 -187394
832428604863565952 86296 -730 -11299 -187338
832428604881779456 85717 -1045 -11532 -187310
832428604899992960 85397 -1156 -11667 -187311
832428604918206336 85381 -1220 -11701 -187401
832428604936419840 85631 -1056 -11603 -187377
832428604954633216 86107 -796 -11418 -187344
832428604972846720 86624 -546 -11170 -187367
832428604991060096 87088 -247 -10945 -187313
832428605009273600 87265 -213 -10957 -187387
832428605027486976 87412 -73 -10894 -187359
832428605045700480 87637 -10 -10867 -187403
832428605063913984 88106 284 -10615 -187339
832428605082127360 88603 520 -10448 -187372
832428605100340864 89200 860 -10198 -187334
832428605118554240 89429 906 -10077 -187364
832428605136767744 89052 717 -10177 -187313
832428605154981120 88352 318 -10504 -187344
832428605173194624 87454 -59 -10826 -187293
832428605191408000 86529 -568 -11261 -187302
832428605209621440 85764 -998 -11513 -187376
832428605227834368 85383 -1186 -11664 -187383
832428605246047232 85350 -1167 -11647 -187355
832428605264260096 85695 -971 -11442 -187367
832428605282472832 86151 -757 -11337 -187402
832428605300685696 86637 -543 -11189 -187322
832428605318898560 86923 -351 -11135 -187345
832428605337111424 87055 -281 -11043 -187309
832428605355324288 87238 -167 -10934 -187328
832428605373537024 87554 -41 -10817 -187317
832428605391749888 87949 171 -10637 -187294
832428605409962752 88387 398 -10487 -187300
832428605428175616 88978 716 -10230 -187327
832428605446388352 89523 923 -10041 -187293
832428605464601216 89433 972 -10089 -187316
832428605482814080 88821 654 -10329 -187323
832428605501026944 87854 205 -10703 -187324
832428605519239808 86702 -471 -11120 -187392
832428605537452544 85828 -867 -11498 -187320
832428605555665408 85368 -1160 -11704 -187341
832428605573878272 85285 -1243 -11695 -187358
832428605592091136 85594 -1091 -11567 -187293
832428605610304000 85984 -827 -11429 -187349
832428605628516736 86408 -566 -11265 -187327
832428605646729600 86904 -395 -11066 -187296
832428605664942464 87204 -187 -10919 -187337
832428605683155328 87334 -95 -10871 -187319
832428605701368192 87595 60 -10741 -187356
832428605719580928 87757 108 -10712 -187337
832428605737793792 88122 301 -10556 -187375
832428605756006656 88763 626 -10338 -187354
832428605774219520 89311 922 -10135 -187347
832428605792432384 89362 925 -10117 -187412
832428605810645120 88913 699 -10292 -187369
832428605828857984 88206 350 -10548 -187325
832428605847070746 87200 -166 -10958 -187390
832428605865284864 86303 -642 -11253 -187328
832428605883499008 85628 -981 -11535 -187308
832428605901713152 85312 -1202 -11620 -187334
832428605919927296 85370 -1144 -11609 -187296
832428605938141440 85709 -978 -11520 -187360
832428605956355584 86199 -730 -11325 -187305
832428605974569728 86685 -459 -11131 -187291
832428605992783872 87023 -281 -10943 -187323
832428606010998016 87254 -143 -10881 -187363
832428606029212160 87467 -81 -10826 -187362
832428606047426304 87746 57 -10767 -187419
832428606065640448 88147 304 -10585 -187387
832428606083854592 88558 548 -10480 -187389
832428606102068736 89105 824 -10232 -187342
832428606120282880 89229 863 -10144 -187324
832428606138497024 89010 747 -10241 -187300
832428606156711168 88277 331 -10491 -187325
832428606174925312 87458 -45 -10862 -187272
832428606193139456 86460 -581 -11252 -187305
832428606211353600 85816 -943 -11400 -187287
832428606229567744 85464 -1184 -11652 -187344
832428606247781888 85411 -1133 -11640 -187361
832428606265996032 85767 -980 -11478 -187366
832428606284210176 86167 -766 -11345 -187364
832428606302424320 86563 -593 -11213 -187370
832428606320638464 86856 -318 -11102 -187402
832428606338852608 87155 -208 -10982 -187372
832428606357066752 87379 -105 -10877 -187384
832428606375280896 87587 -45 -10782 -187366
832428606393495040 87933 123 -10687 -187366
832428606411709184 88522 443 -10443 -187321
832428606429923328 89115 821 -10192 -187319
832428606448137472 89437 963 -10056 -187324
832428606466351616 89306 845 -10099 -187316
832428606484565828 88720 666 -10383 -187318
832428606502779776 87713 178 -10769 -187367
832428606520993664 86610 -414 -11130 -187325
832428606539207552 85841 -891 -11424 -187287
832428606557421440 85366 -1165 -11662 -187307
832428606575635328 85315 -1156 -11675 -187289
832428606593849216 85555 -1073 -11573 -187351
832428606612063104 86030 -822 -11439 -187415
832428606630276992 86563 -526 -11188 -187281
832428606648490880 87003 -349 -11055 -187351
832428606666704768 87155 -217 -10949 -187369
832428606684918656 87308 -85 -10906 -187347
832428606703132544 87497 -48 -10815 -187317
832428606721346432 87747 74 -10741 -187328
832428606739560320 88156 290 -10556 -187360
832428606757774080 88803 629 -10313 -187372
832428606775987968 89363 921 -10125 -187339
832428606794201856 89382 956 -10158 -187351
832428606812415744 88969 711 -10281 -187311
832428606830629632 88132 305 -10619 -187374
832428606848843520 87112 -229 -11004 -187405
832428606867057408 86179 -723 -11347 -187374
832428606885271296 85519 -1078 -11534 -187349
832428606903485184 85223 -1263 -11735 -187356
832428606921699072 85432 -1175 -11681 -187381
832428606939912960 85812 -907 -11542 -187343
832428606958126848 86336 -640 -11318 -187347
832428606976340736 86798 -448 -11152 -187356
832428606994554624 87197 -264 -10953 -187360
832428607012768512 87381 -178 -10905 -187371
832428607030982400 87519 -24 -10851 -187370
832428607049196288 87750 107 -10738 -187346
832428607067410176 88135 301 -10668 -187434
832428607085624064 88602 578 -10408 -187367
832428607103837952 89105 811 -10268 -187334
832428607122051746 89276 875 -10168 -187352
832428607140266240 89016 719 -10217 -187344
832428607158480768 88271 377 -10561 -187363
832428607176695424 87298 -117 -10882 -187361
832428607194909952 86343 -687 -11285 -187396
832428607213124608 85770 -970 -11471 -187377
832428607231339136 85455 -1175 -11595 -187350
832428607249553664 85474 -1147 -11608 -187299
832428607267768320 85713 -1018 -11501 -187375
832428607285982848 86135 -756 -11326 -187370
832428607304197504 86605 -542 -11169 -187310
832428607322412032 86968 -270 -11032 -187295
832428607340626688 87179 -246 -10925 -187343
832428607358841216 87421 -156 -10818 -187301
832428607377055744 87759 27 -10704 -187321
832428607395270400 88057 250 -10619 -187361
832428607413484928 88581 559 -10381 -187342
832428607431699584 89139 793 -10170 -187321
832428607449914112 89408 1004 -10088 -187366
832428607468128640 89191 882 -10157 -187362
832428607486343296 88490 464 -10432 -187334
832428607504557824 87590 -60 -10827 -187352
832428607522772480 86552 -470 -11179 -187391
832428607540987008 85768 -897 -11461 -187403
832428607559201664 85389 -1143 -11589 -187337
832428607577416192 85364 -1126 -11654 -187344
832428607595630720 85527 -1073 -11598 -187394
832428607613845376 86054 -770 -11338 -187337
832428607632059904 86600 -559 -11190 -187338
832428607650274560 86939 -416 -11081 -187351
832428607668489088 87140 -199 -10997 -187350
832428607686703616 87259 -191 -10963 -187317
832428607704918272 87483 -14 -10861 -187345
832428607723132800 87860 181 -10667 -187333
832428607741347456 88285 385 -10528 -187374
832428607759562088 88907 659 -10311 -187371
832428607777775872 89320 911 -10144 -187358
832428607795989632 89331 880 -10145 -187362
832428607814203520 88915 663 -10332 -187359
832428607832417280 87963 188 -10659 -187364
832428607850631040 86914 -387 -11073 -187326
832428607868844800 85957 -854 -11395 -187354
832428607887058688 85408 -1215 -11668 -187361
832428607905272448 85173 -1346 -11785 -187376
832428607923486208 85429 -1138 -11661 -187336
832428607941700096 85856 -903 -11445 -187319
832428607959913856 86427 -579 -11220 -187294
832428607978127616 86855 -382 -11081 -187344
832428607996341376 87294 -168 -10891 -187325
832428608014555264 87528 -46 -10833 -187296
832428608032769024 87628 31 -10791 -187313
832428608050982784 87803 173 -10681 -187299
832428608069196672 88145 315 -10593 -187300
832428608087410432 88661 576 -10403 -187327
832428608105624192 89185 862 -10236 -187404
832428608123837952 89363 910 -10170 -187333
832428608142051840 89018 738 -10267 -187302
832428608160265600 88190 257 -10634 -187410
832428608178479360 87252 -204 -10892 -187368
832428608196693248 86448 -702 -11226 -187386
832428608214907008 85722 -1024 -11454 -187378
832428608233120768 85368 -1150 -11657 -187363
832428608251334528 85337 -1219 -11681 -187337
832428608269548416 85662 -1013 -11533 -187350
832428608287762176 86077 -768 -11362 -187328
832428608305975936 86561 -556 -11225 -187346
832428608324189824 86987 -320 -11012 -187335
832428608342403584 87224 -197 -10940 -187332
832428608360617344 87408 -122 -10882 -187366
832428608378831104 87682 -6 -10856 -187342
832428608397044962 88108 232 -10641 -187377
832428608415258624 88592 515 -10433 -187372
832428608433472256 89122 839 -10199 -187371
832428608451686016 89313 904 -10142 -187423
832428608469899648 89124 738 -10255 -187371
832428608488113280 88327 339 -10568 -187404
832428608506326912 87399 -164 -10919 -187426
832428608524540672 86428 -619 -11271 -187428
832428608542754304 85816 -938 -11510 -187355
832428608560967936 85399 -1154 -11700 -187371
832428608579181568 85322 -1226 -11734 -187360
832428608597395328 85680 -1019 -11515 -187406
832428608615608960 86081 -793 -11374 -187379
832428608633822592 86528 -586 -11225 -187352
832428608652036224 86836 -392 -11135 -187362
832428608670249984 87043 -260 -11037 -187369
832428608688463616 87224 -191 -10994 -187370
832428608706677248 87518 -21 -10834 -187379
832428608724890880 87918 171 -10674 -187357
832428608743104640 88413 395 -10519 -187345
832428608761318272 88965 760 -10264 -187372
832428608779531904 89415 917 -10123 -187325
832428608797745664 89336 950 -10123 -187391
832428608815959296 88787 657 -10332 -187353
832428608834172928 87868 165 -10675 -187335
832428608852386560 86832 -451 -11120 -187338
832428608870600320 85836 -901 -11512 -187391
832428608888813952 85375 -1129 -11670 -187364
832428608907027584 85257 -1280 -11782 -187326
832428608925241216 85452 -1120 -11618 -187291
832428608943454976 85865 -901 -11464 -187350
832428608961668608 86388 -596 -11289 -187386
832428608979882240 86887 -374 -11125 -187378
832428608998095872 87270 -188 -10962 -187376
832428609016309632 87357 -149 -10905 -187409
832428609034523258 87534 -54 -10847 -187362
832428609052736384 87712 86 -10710 -187372
832428609070949504 88055 246 -10668 -187367
832428609089162624 88643 540 -10433 -187371
832428609107375872 89199 823 -10189 -187347
832428609125588992 89284 893 -10181 -187391
832428609143802112 88920 716 -10319 -187377
832428609162015232 88125 274 -10598 -187355
832428609180228352 87233 -150 -10951 -187378
832428609198441472 86323 -693 -11319 -187384
832428609216654720 85648 -989 -11541 -187394
832428609234867840 85284 -1185 -11663 -187401
832428609253080960 85335 -1168 -11670 -187345
832428609271294080 85718 -1013 -11581 -187363
832428609289507200 86183 -767 -11358 -187395
832428609307720320 86711 -492 -11190 -187362
832428609325933568 87038 -330 -11034 -187337
832428609344146688 87285 -198 -10957 -187356
832428609362359808 87507 -50 -10851 -187320
832428609380572928 87773 115 -10713 -187383
832428609398786048 88180 282 -10567 -187391
832428609416999168 88580 523 -10439 -187356
832428609435212416 89138 762 -10231 -187363
832428609453425536 89241 853 -10220 -187414
832428609471638656 89025 723 -10295 -187364
832428609489851776 88390 362 -10493 -187357
832428609508064896 87385 -76 -10860 -187346
832428609526278144 86446 -596 -11227 -187343
832428609544491264 85743 -1014 -11539 -187336
832428609562704384 85357 -1211 -11661 -187371
832428609580917504 85435 -1169 -11630 -187371
832428609599130624 85739 -1003 -11543 -187355
832428609617343744 86065 -885 -11438 -187363
832428609635556992 86509 -581 -11221 -187373
832428609653770112 86784 -460 -11122 -187337
832428609671983236 87088 -304 -10969 -187397
832428609690196352 87316 -183 -10931 -187400
832428609708409472 87528 -44 -10880 -187412
832428609726622592 87925 217 -10691 -187305
832428609744835840 88427 415 -10517 -187360
832428609763048960 89041 699 -10289 -187386
832428609781262080 89411 928 -10131 -187442
832428609799475200 89216 883 -10175 -187430
832428609817688320 88567 496 -10494 -187403
832428609835901440 87621 -4 -10844 -187328
832428609854114688 86544 -571 -11255 -187395
832428609872327808 85835 -935 -11495 -187393
832428609890540928 85388 -1187 -11650 -187345
832428609908754048 85305 -1254 -11703 -187364
832428609926967168 85483 -1105 -11613 -187419
832428609945180288 85935 -916 -11439 -187343
832428609963393536 86537 -576 -11250 -187376
832428609981606656 86995 -264 -11076 -187395
832428609999819776 87132 -228 -10950 -187419
832428610018032896 87253 -197 -10928 -187404
832428610036246016 87446 -67 -10846 -187359
832428610054459264 87707 76 -10738 -187368
832428610072672384 88226 267 -10602 -187387
832428610090885504 88753 615 -10342 -187392
832428610109098624 89225 778 -10241 -187476
832428610127311744 89310 889 -10128 -187410
832428610145524864 88895 607 -10267 -187361
832428610163738112 88135 252 -10633 -187407
832428610181951232 87108 -232 -10970 -187394
832428610200164352 86200 -730 -11332 -187406
832428610218377472 85511 -1045 -11577 -187391
832428610236590592 85184 -1302 -11718 -187335
832428610254803712 85318 -1171 -11647 -187338
832428610273016960 85756 -1021 -11561 -187374
832428610291230080 86354 -632 -11278 -187347
832428610309443222 86708 -507 -11190 -187370
832428610327656320 87054 -267 -10993 -187358
832428610345869440 87299 -119 -10883 -187317
832428610364082560 87550 -6 -10791 -187351
832428610382295808 87854 136 -10647 -187311
832428610400508928 88202 287 -10569 -187345
832428610418722048 88648 573 -10329 -187293
832428610436935168 89128 874 -10180 -187300
832428610455148288 89278 848 -10189 -187315
832428610473361408 89013 716 -10231 -187324
832428610491574656 88279 363 -10520 -187351
832428610509787776 87421 -110 -10804 -187362
832428610528000896 86407 -596 -11240 -187327
832428610546214016 85680 -1026 -11565 -187357
832428610564427136 85341 -1160 -11660 -187394
832428610582640256 85384 -1136 -11595 -187341
832428610600853504 85646 -1000 -11525 -187372
832428610619066624 86121 -810 -11387 -187359
832428610637279744 86501 -620 -11192 -187337
832428610655492864 86979 -357 -11019 -187353
832428610673705984 87237 -221 -10978 -187383
832428610691919232 87414 -129 -10909 -187357
832428610710132352 87587 14 -10843 -187350
832428610728345472 87979 227 -10669 -187292
832428610746558592 88578 484 -10449 -187327
832428610764771712 89165 833 -10166 -187330
832428610782984832 89461 976 -10087 -187420
832428610801198080 89215 868 -10223 -187410
832428610819411200 88487 471 -10451 -187362
832428610837624320 87555 -25 -10850 -187339
832428610855837440 86588 -543 -11145 -187317
832428610874050560 85818 -921 -11512 -187327
832428610892263680 85358 -1161 -11676 -187363
832428610910476928 85279 -1194 -11701 -187359
832428610928690048 85574 -1139 -11597 -187389
832428610946903208 86102 -822 -11442 -187380
832428610965117184 86560 -590 -11211 -187448
832428610983331200 86957 -346 -11072 -187385
832428611001545216 87177 -237 -10953 -187362
832428611019759232 87245 -120 -10942 -187364
832428611037973248 87479 -126 -10896 -187332
832428611056187264 87852 53 -10720 -187397
832428611074401280 88282 367 -10576 -187409
832428611092615296 88906 676 -10372 -187357
832428611110829312 89350 880 -10183 -187330
832428611129043328 89362 883 -10156 -187394
832428611147257344 88830 609 -10379 -187387
832428611165471360 87978 226 -10636 -187360
832428611183685376 87063 -305 -11030 -187363
832428611201899392 86013 -823 -11428 -187394
832428611220113408 85350 -1194 -11725 -187379
832428611238327424 85129 -1301 -11759 -187391
832428611256541440 85410 -1172 -11612 -187366
832428611274755456 85830 -931 -11486 -187296
832428611292969472 86313 -613 -11242 -187341
832428611311183488 86775 -402 -11147 -187340
832428611329397504 87071 -303 -11086 -187417
832428611347611520 87349 -129 -10960 -187375
832428611365825536 87527 -37 -10807 -187374
832428611384039552 87772 89 -10762 -187341
832428611402253568 88169 324 -10556 -187368
832428611420467584 88619 553 -10464 -187304
832428611438681600 89143 811 -10192 -187372
832428611456895616 89292 853 -10197 -187362
832428611475109632 88922 670 -10333 -187372
832428611493323648 88221 313 -10610 -187383
832428611511537664 87201 -164 -10945 -187370
832428611529751680 86411 -604 -11257 -187390
832428611547965696 85724 -1055 -11514 -187412
832428611566179712 85417 -1182 -11607 -187371
832428611584393712 85445 -1181 -11622 -187351
832428611602606848 85728 -1036 -11557 -187377
832428611620819968 86052 -818 -11368 -187347
832428611639033088 86569 -572 -11169 -187359
832428611657246336 86917 -367 -11082 -187384
832428611675459456 87263 -220 -10931 -187357
832428611693672576 87426 -68 -10825 -187369
832428611711885696 87677 32 -10754 -187340
832428611730098816 88149 273 -10535 -187377
832428611748311936 88648 515 -10363 -187351
832428611766525184 89241 797 -10121 -187321
832428611784738304 89426 929 -10109 -187345
832428611802951424 89064 828 -10207 -187420
832428611821164544 88287 334 -10541 -187409
832428611839377664 87457 -105 -10800 -187375
832428611857590784 86529 -587 -11167 -187390
832428611875804032 85821 -984 -11544 -187406
832428611894017152 85321 -1172 -11660 -187389
832428611912230272 85316 -1192 -11650 -187359
832428611930443392 85604 -1048 -11551 -187386
832428611948656512 86082 -789 -11415 -187418
832428611966869632 86569 -571 -11183 -187351
832428611985082880 86902 -368 -11080 -187384
832428612003296000 87060 -248 -11072 -187367
832428612021509120 87296 -163 -10948 -187329
832428612039722240 87523 -46 -10852 -187335
832428612057935360 87918 22 -10761 -187383
832428612076148608 88375 378 -10575 -187388
832428612094361728 88939 652 -10306 -187368
832428612112574848 89359 900 -10158 -187370
832428612130787968 89364 939 -10147 -187318
832428612149001088 88870 690 -10331 -187312
832428612167214208 87901 159 -10656 -187401
832428612185427456 86796 -368 -11133 -187403
832428612203640576 85847 -956 -11489 -187430
832428612221853696 85244 -1226 -11774 -187401
832428612240066832 85191 -1246 -11731 -187380
832428612258279936 85450 -1140 -11646 -187377
832428612276493056 85947 -948 -11489 -187353
832428612294706176 86412 -703 -11308 -187406
832428612312919424 86833 -461 -11082 -187330
832428612331132544 87190 -252 -10962 -187323
832428612349345664 87369 -160 -10932 -187384
832428612367558784 87507 -50 -10832 -187376
832428612385771904 87765 66 -10769 -187351
832428612403985024 88114 277 -10606 -187378
832428612422198272 88670 588 -10368 -187358
832428612440411392 89260 880 -10195 -187344
832428612458624512 89350 951 -10084 -187315
832428612476837632 88986 750 -10262 -187345
832428612495050752 88261 292 -10575 -187312
832428612513263872 87259 -235 -10931 -187330
832428612531477120 86343 -672 -11228 -187332
832428612549690240 85639 -1062 -11497 -187408
832428612567903360 85301 -1232 -11701 -187407
832428612586116480 85405 -1186 -11643 -187423
832428612604329600 85552 -1072 -11568 -187378
832428612622542848 86139 -710 -11369 -187358
832428612640755968 86700 -499 -11162 -187350
832428612658969088 87089 -321 -11031 -187384
832428612677182208 87331 -177 -10882 -187380
832428612695395328 87452 -105 -10866 -187396
832428612713608448 87780 77 -10764 -187335
832428612731821696 88182 276 -10594 -187352
832428612750034816 88671 532 -10433 -187383
832428612768247936 89225 811 -10211 -187372
832428612786461056 89296 890 -10163 -187353
832428612804674176 89128 710 -10268 -187311
832428612822887296 88340 322 -10552 -187392
832428612841100544 87430 -148 -10882 -187386
832428612859313664 86430 -626 -11254 -187449
832428612877526818 85744 -935 -11530 -187419
832428612895738240 85347 -1192 -11686 -187361
832428612913949696 85365 -1155 -11663 -187425
832428612932161152 85731 -1024 -11548 -187397
832428612950372736 86114 -794 -11405 -187386
832428612968584192 86520 -589 -11232 -187380
832428612986795648 86889 -348 -11098 -187384
832428613005007104 87173 -198 -10949 -187363
832428613023218688 87315 -156 -10927 -187358
832428613041430144 87560 20 -10822 -187343
832428613059641600 87995 187 -10662 -187373
832428613077853056 88422 426 -10531 -187403
832428613096064640 89022 743 -10219 -187360
832428613114276096 89503 959 -10108 -187361
832428613132487552 89353 938 -10107 -187357
832428613150699008 88762 623 -10337 -187362
832428613168910464 87750 93 -10731 -187381
832428613187122048 86634 -493 -11108 -187405
832428613205333504 85778 -986 -11471 -187359
832428613223544960 85324 -1209 -11659 -187386
832428613241756416 85276 -1244 -11658 -187402
832428613259968000 85524 -1133 -11588 -187398
832428613278179456 85965 -887 -11476 -187358
832428613296390912 86419 -648 -11315 -187460
832428613314602368 86916 -332 -11137 -187418
832428613332813952 87211 -216 -11019 -187391
832428613351025408 87386 -95 -10900 -187337
832428613369236864 87482 -39 -10794 -187336
832428613387448320 87712 99 -10744 -187353
832428613405659776 88151 309 -10547 -187366
832428613423871360 88810 602 -10294 -187375
832428613442082816 89341 913 -10136 -187334
832428613460294272 89364 929 -10092 -187357
832428613478505728 88985 669 -10267 -187355
832428613496717312 88221 252 -10545 -187327
832428613514928818 87190 -260 -10989 -187304
832428613533141760 86205 -714 -11259 -187265
832428613551354752 85494 -1099 -11623 -187357
832428613569567872 85255 -1257 -11679 -187310
832428613587780864 85334 -1232 -11692 -187326
832428613605993984 85758 -955 -11532 -187326
832428613624206976 86299 -665 -11278 -187403
832428613642420096 86792 -470 -11134 -187357
832428613660633088 87177 -282 -10968 -187332
832428613678846208 87356 -213 -10874 -187325
832428613697059200 87536 -14 -10854 -187322
832428613715272320 87797 155 -10759 -187323
832428613733485312 88190 319 -10603 -187282
832428613751698432 88560 528 -10422 -187357
832428613769911424 89154 830 -10158 -187312
832428613788124544 89292 885 -10110 -187344
832428613806337536 89047 748 -10274 -187302
832428613824550656 88326 314 -10440 -187373
832428613842763648 87360 -143 -10884 -187335
832428613860976768 86398 -614 -11205 -187410
832428613879189760 85700 -962 -11469 -187350
832428613897402880 85435 -1118 -11653 -187391
832428613915615872 85488 -1119 -11596 -187389
832428613933828992 85807 -943 -11494 -187353
832428613952041984 86196 -743 -11352 -187371
832428613970255104 86568 -572 -11173 -187354
832428613988468096 86989 -368 -11039 -187338
832428614006681216 87170 -185 -10949 -187375
832428614024894208 87434 -164 -10876 -187354
832428614043107328 87699 -15 -10816 -187338
832428614061320320 88005 184 -10664 -187326
832428614079533440 88475 504 -10468 -187339
832428614097746432 89072 777 -10242 -187349
832428614115959552 89419 1032 -10083 -187313
832428614134172544 89241 842 -10165 -187298
832428614152385754 88544 475 -10473 -187316
832428614170598912 87550 -46 -10829 -187379
832428614188812032 86605 -518 -11186 -187343
832428614207025152 85836 -982 -11454 -187373
832428614225238400 85404 -1174 -11668 -187346
832428614243451520 85322 -1199 -11695 -187337
832428614261664640 85563 -1002 -11574 -187343
832428614279877760 86038 -792 -11381 -187387
832428614298090880 86586 -519 -11201 -187368
832428614316304000 87008 -270 -11028 -187354
832428614334517248 87195 -203 -10962 -187362
832428614352730368 87317 -146 -10906 -187379
832428614370943488 87459 -84 -10846 -187353
832428614389156608 87823 122 -10725 -187358
832428614407369728 88335 368 -10506 -187272
832428614425582848 88914 641 -10302 -187299
832428614443796096 89360 914 -10113 -187340
832428614462009216 89383 933 -10087 -187351
832428614480222336 88918 691 -10270 -187334
832428614498435456 88043 207 -10650 -187362
832428614516648576 87036 -291 -11019 -187332
832428614534861696 86101 -725 -11324 -187378
832428614553074944 85489 -1173 -11636 -187372
832428614571288064 85262 -1254 -11703 -187344
832428614589501184 85431 -1235 -11674 -187425
832428614607714304 85852 -982 -11510 -187341
832428614625927424 86360 -712 -11275 -187330
832428614644140672 86801 -461 -11116 -187346
832428614662353792 87119 -308 -11014 -187373
832428614680566912 87372 -148 -10962 -187396
832428614698780032 87517 -24 -10838 -187368
832428614716993152 87810 150 -10705 -187363
832428614735206272 88115 278 -10550 -187324
832428614753419520 88550 500 -10473 -187391
832428614771632640 89120 760 -10216 -187415
832428614789845732 89309 857 -10128 -187346
832428614808058880 88972 699 -10253 -187406
832428614826272000 88217 366 -10550 -187412
832428614844485120 87299 -150 -10884 -187402
832428614862698368 86350 -660 -11285 -187343
832428614880911488 85726 -954 -11508 -187368
832428614899124608 85386 -1193 -11676 -187396
832428614917337728 85347 -1160 -11646 -187368
832428614935550848 85643 -1050 -11609 -187417
832428614953763968 86078 -788 -11367 -187407
832428614971977216 86577 -574 -11180 -187374
832428614990190336 86910 -384 -11081 -187391
832428615008403456 87191 -211 -10979 -187392
832428615026616576 87432 -50 -10863 -187370
832428615044829696 87651 46 -10826 -187349
832428615063042816 88100 243 -10628 -187346
832428615081256064 88590 557 -10458 -187386
832428615099469184 89132 829 -10247 -187391
832428615117682304 89411 991 -10147 -187390
832428615135895424 89139 836 -10264 -187358
832428615154108544 88388 429 -10474 -187390
832428615172321792 87525 -62 -10851 -187342
832428615190534912 86549 -577 -11198 -187355
832428615208748032 85853 -910 -11489 -187362
832428615226961152 85401 -1246 -11682 -187368
832428615245174272 85352 -1184 -11684 -187349
832428615263387392 85668 -1084 -11626 -187391
832428615281600640 86099 -770 -11340 -187373
832428615299813760 86491 -623 -11250 -187426
832428615318026880 86934 -374 -11059 -187414
832428615336240000 87116 -260 -11028 -187392
832428615354453120 87242 -148 -10986 -187374
832428615372666240 87450 -28 -10857 -187356
832428615390879488 87806 82 -10809 -187470
832428615409092608 88334 371 -10560 -187392
832428615427305718 88944 634 -10363 -187351
832428615445517952 89463 925 -10115 -187383
832428615463730176 89463 932 -10074 -187356
832428615481942528 88844 614 -10352 -187407
832428615500154752 87889 181 -10708 -187376
832428615518366976 86806 -391 -11124 -187327
832428615536579328 85913 -862 -11449 -187329
832428615554791552 85393 -1206 -11726 -187373
832428615573003904 85252 -1327 -11830 -187338
832428615591216128 85460 -1149 -11665 -187322
832428615609428352 85847 -982 -11551 -187324
832428615627640704 86359 -653 -11329 -187335
832428615645852928 86771 -424 -11146 -187387
832428615664065152 87156 -229 -10985 -187408
832428615682277504 87408 -149 -10850 -187371
832428615700489728 87544 17 -10840 -187393
832428615718701952 87706 54 -10820 -187403
832428615736914304 88048 239 -10570 -187337
832428615755126528 88633 559 -10406 -187345
832428615773338880 89221 883 -10155 -187363
832428615791551104 89344 926 -10108 -187357
832428615809763328 88925 727 -10281 -187378
832428615827975680 88228 328 -10575 -187385
832428615846187904 87240 -217 -10988 -187366
832428615864400128 86341 -680 -11373 -187397
832428615882612480 85681 -968 -11597 -187361
832428615900824704 85286 -1208 -11725 -187329
832428615919036928 85339 -1164 -11720 -187367
832428615937249280 85663 -1070 -11551 -187380
832428615955461504 86149 -765 -11370 -187374
832428615973673856 86665 -574 -11138 -187401
832428615991886080 87008 -314 -10999 -187326
832428616010098304 87263 -182 -10905 -187368
832428616028310656 87466 -65 -10848 -187320
832428616046522880 87813 20 -10788 -187368
832428616064735186 88131 300 -10642 -187424
832428616082948352 88637 576 -10426 -187352
832428616101161472 89187 833 -10172 -187327
832428616119374592 89288 909 -10089 -187403
832428616137587840 88936 746 -10293 -187418
832428616155800960 88295 327 -10528 -187398
832428616174014080 87415 -124 -10834 -187328
832428616192227200 86429 -591 -11224 -187398
832428616210440320 85717 -1001 -11524 -187418
832428616228653440 85357 -1202 -11663 -187359
832428616246866688 85384 -1152 -11631 -187363
832428616265079808 85784 -987 -11492 -187381
832428616283292928 86132 -796 -11364 -187398
832428616301506048 86547 -524 -11227 -187380
832428616319719168 86857 -422 -11136 -187398
832428616337932288 87002 -290 -11089 -187357
832428616356145536 87289 -142 -10995 -187396
832428616374358656 87552 26 -10779 -187387
832428616392571776 87863 147 -10735 -187334
832428616410784896 88425 399 -10506 -187368
832428616428998016 89038 721 -10277 -187343
832428616447211264 89429 957 -10089 -187417
832428616465424384 89367 935 -10099 -187316
832428616483637504 88687 628 -10342 -187315
832428616501850624 87767 93 -10675 -187341
832428616520063744 86630 -466 -11150 -187355
832428616538276864 85804 -935 -11478 -187327
832428616556490112 85403 -1221 -11722 -187328
832428616574703232 85312 -1244 -11699 -187334
832428616592916352 85540 -1103 -11675 -187386
832428616611129472 85943 -943 -11473 -187367
832428616629342592 86425 -640 -11274 -187336
832428616647555712 86937 -402 -11045 -187334
832428616665768960 87240 -241 -11002 -187368
832428616683982080 87344 -160 -10892 -187394
832428616702195172 87465 -99 -10858 -187404
832428616720407552 87681 44 -10758 -187341
832428616738619904 88154 300 -10621 -187383
832428616756832128 88783 608 -10380 -187369
832428616775044480 89226 847 -10213 -187391
832428616793256832 89265 808 -10201 -187408
832428616811469184 88887 654 -10339 -187349
832428616829681408 88147 281 -10599 -187393
832428616847893760 87157 -260 -10962 -187413
832428616866106112 86194 -705 -11243 -187417
832428616884318336 85540 -1061 -11542 -187444
832428616902530688 85225 -1293 -11780 -187466
832428616920743040 85262 -1207 -11722 -187383
832428616938955264 85678 -1031 -11516 -187375
832428616957167616 86281 -766 -11320 -187377
832428616975379968 86747 -525 -11145 -187380
832428616993592320 87001 -345 -11032 -187379
832428617011804544 87269 -174 -10960 -187384
832428617030016896 87554 -46 -10886 -187369
832428617048229248 87902 107 -10721 -187332
832428617066441472 88181 303 -10600 -187347
832428617084653824 88616 489 -10425 -187362
832428617102866176 89164 832 -10250 -187384
832428617121078400 89178 846 -10230 -187431
832428617139290752 89029 810 -10242 -187355
832428617157503104 88362 367 -10517 -187387
832428617175715456 87360 -130 -10907 -187421
832428617193927680 86407 -706 -11244 -187410
832428617212140032 85664 -1080 -11514 -187415
832428617230352384 85409 -1186 -11630 -187364
832428617248564608 85426 -1167 -11615 -187422
832428617266776960 85756 -1031 -11541 -187369
832428617284989312 86073 -824 -11377 -187376
832428617303201536 86470 -622 -11236 -187405
832428617321413888 86893 -393 -11107 -187380
832428617339626156 87191 -233 -10975 -187425
832428617357839232 87403 -142 -10864 -187373
832428617376052352 87629 -15 -10799 -187412
832428617394265472 87985 202 -10640 -187378
832428617412478592 88464 443 -10451 -187402
832428617430691584 89169 819 -10197 -187408
832428617448904704 89505 999 -10039 -187425
832428617467117824 89323 882 -10181 -187465
832428617485330944 88554 489 -10436 -187451
832428617503544064 87619 9 -10800 -187397
832428617521757184 86613 -494 -11181 -187381
832428617539970176 85811 -911 -11516 -187405
832428617558183296 85276 -1266 -11721 -187473
832428617576396416 85244 -1267 -11764 -187374
832428617594609536 85555 -1169 -11665 -187440
832428617612822656 86019 -875 -11415 -187360
832428617631035776 86546 -557 -11242 -187355
832428617649248768 86882 -347 -11081 -187349
832428617667461888 87081 -245 -11044 -187380
832428617685675008 87242 -252 -10971 -187440
832428617703888128 87429 -108 -10938 -187409
832428617722101248 87782 65 -10747 -187411
832428617740314368 88305 294 -10552 -187373
832428617758527360 88859 614 -10306 -187358
832428617776740480 89324 867 -10126 -187345
832428617794953600 89309 872 -10189 -187379
832428617813166720 88867 580 -10413 -187387
832428617831379840 88030 214 -10679 -187381
832428617849592960 87080 -318 -11026 -187303
832428617867805952 86124 -806 -11378 -187366
832428617886019072 85500 -1124 -11622 -187369
832428617904232192 85197 -1346 -11739 -187415
832428617922445312 85420 -1172 -11679 -187356
832428617940658432 85845 -927 -11515 -187352
832428617958871552 86345 -719 -11329 -187375
832428617977084618 86752 -423 -11112 -187404
832428617995297792 87082 -287 -11030 -187368
832428618013510912 87336 -144 -10891 -187380
832428618031724032 87585 0 -10772 -187342
832428618049937280 87847 53 -10723 -187375
832428618068150400 88164 293 -10575 -187412
832428618086363520 88631 521 -10392 -187363
832428618104576640 89198 824 -10193 -187349
832428618122789760 89323 885 -10145 -187337
832428618141002880 89019 721 -10253 -187351
832428618159216128 88248 347 -10520 -187326
832428618177429248 87318 -200 -10883 -187324
832428618195642368 86389 -637 -11228 -187339
832428618213855488 85777 -964 -11499 -187429
832428618232068608 85498 -1176 -11579 -187369
832428618250281728 85408 -1156 -11635 -187440
832428618268494976 85697 -999 -11513 -187379
832428618286708096 86070 -793 -11334 -187302
832428618304921216 86558 -571 -11108 -187357
832428618323134336 86945 -348 -11019 -187317
832428618341347456 87236 -295 -10915 -187317
832428618359560704 87443 -150 -10903 -187383
832428618377773824 87697 -29 -10831 -187378
832428618395986944 88045 197 -10610 -187444
832428618414200064 88547 490 -10469 -187344
832428618432413184 89147 808 -10183 -187328
832428618450626304 89408 891 -10084 -187369
832428618468839552 89134 799 -10190 -187363
832428618487052672 88352 411 -10537 -187410
832428618505265792 87422 -27 -10842 -187367
832428618523478912 86538 -569 -11266 -187372
832428618541692032 85812 -961 -11494 -187351
832428618559905152 85401 -1169 -11673 -187401
832428618578118400 85316 -1265 -11685 -187360
832428618596331520 85620 -1090 -11547 -187296
832428618614544604 86075 -861 -11387 -187344
832428618632757632 86547 -504 -11216 -187330
832428618650970624 86936 -367 -11080 -187417
832428618669183616 87146 -278 -10954 -187398
832428618687396480 87199 -209 -10944 -187395
832428618705609472 87484 -101 -10911 -187398
832428618723822464 87838 100 -10764 -187380
832428618742035456 88274 350 -10543 -187343
832428618760248448 88919 701 -10337 -187299
832428618778461440 89312 894 -10160 -187318
832428618796674304 89337 874 -10122 -187388
832428618814887296 88803 572 -10326 -187347
832428618833100288 87931 197 -10677 -187404
832428618851313280 86914 -340 -11023 -187343
832428618869526272 85996 -816 -11420 -187367
832428618887739136 85353 -1133 -11617 -187404
832428618905952128 85259 -1284 -11683 -187409
832428618924165120 85523 -1133 -11568 -187391
832428618942378112 85919 -942 -11455 -187386
832428618960591104 86402 -702 -11328 -187411
832428618978803968 86801 -441 -11172 -187359
832428618997016960 87175 -225 -10966 -187372
832428619015229952 87399 -72 -10893 -187321
832428619033442944 87538 -12 -10797 -187293
832428619051655936 87738 94 -10710 -187380
832428619069868928 88144 227 -10661 -187384
832428619088081792 88631 467 -10460 -187364
832428619106294784 89211 772 -10207 -187363
832428619124507776 89360 934 -10144 -187323
832428619142720768 88966 690 -10321 -187359
832428619160933760 88235 250 -10688 -187401
832428619179146624 87232 -213 -11006 -187385
832428619197359616 86366 -685 -11307 -187372
832428619215572608 85655 -1035 -11552 -187407
832428619233785600 85351 -1189 -11681 -187372
832428619251998486 85338 -1175 -11688 -187346
832428619270210944 85662 -1019 -11566 -187339
832428619288423424 86155 -671 -11366 -187347
832428619306635904 86643 -504 -11232 -187389
832428619324848384 86999 -279 -11107 -187342
832428619343060864 87229 -234 -10963 -187398
832428619361273216 87364 -117 -10906 -187397
832428619379485696 87628 10 -10793 -187391
832428619397698176 88084 207 -10616 -187352
832428619415910656 88594 530 -10426 -187390
832428619434123136 89147 880 -10200 -187370
832428619452335616 89365 955 -10138 -187400
832428619470548096 89047 759 -10279 -187398
832428619488760576 88301 361 -10524 -187371
832428619506972928 87436 -124 -10913 -187310
832428619525185408 86503 -590 -11298 -187368
832428619543397888 85727 -981 -11611 -187355
832428619561610368 85378 -1187 -11744 -187367
832428619579822848 85384 -1221 -11744 -187428
832428619598035328 85715 -1018 -11551 -187368
832428619616247808 86140 -858 -11410 -187395
832428619634460288 86593 -557 -11283 -187438
832428619652672640 86888 -380 -11166 -187384
832428619670885120 87102 -222 -10978 -187363
832428619689097600 87254 -168 -10955 -187337
832428619707310080 87497 -65 -10883 -187345
832428619725522560 87964 142 -10694 -187352
832428619743735040 88366 331 -10480 -187357
832428619761947520 88887 669 -10293 -187395
832428619780160000 89368 951 -10069 -187372
832428619798372352 89288 926 -10160 -187404
832428619816584832 88640 582 -10407 -187361
832428619834797312 87744 138 -10770 -187384
832428619853009792 86753 -414 -11145 -187311
832428619871222272 85818 -934 -11503 -187372
832428619889434752 85376 -1192 -11747 -187421
832428619907647200 85229 -1276 -11704 -187376
832428619925860352 85551 -1117 -11613 -187354
832428619944073472 85970 -851 -11425 -187386
832428619962286592 86445 -575 -11219 -187326
832428619980499840 86926 -386 -11046 -187362
832428619998712960 87177 -300 -10943 -187383
832428620016926080 87294 -134 -10876 -187455
832428620035139200 87486 13 -10765 -187360
832428620053352320 87720 110 -10742 -187405
832428620071565440 88151 280 -10604 -187396
832428620089778688 88777 582 -10367 -187387
832428620107991808 89298 902 -10178 -187377
832428620126204928 89383 946 -10168 -187397
832428620144418048 88943 688 -10356 -187422
832428620162631168 88199 283 -10605 -187400
832428620180844288 87193 -196 -10905 -187392
832428620199057536 86238 -660 -11307 -187358
832428620217270656 85532 -1044 -11582 -187408
832428620235483776 85266 -1245 -11713 -187394
832428620253696896 85286 -1193 -11701 -187366
832428620271910016 85695 -1000 -11499 -187389
832428620290123136 86225 -709 -11326 -187398
832428620308336384 86698 -447 -11167 -187361
832428620326549504 87061 -307 -11045 -187405
832428620344762624 87330 -154 -10855 -187323
832428620362975744 87432 -163 -10833 -187373
832428620381188864 87733 41 -10739 -187417
832428620399402112 88129 230 -10623 -187422
832428620417615232 88644 576 -10383 -187318
832428620435828352 89155 824 -10219 -187375
832428620454041472 89278 921 -10126 -187411
832428620472254592 88993 701 -10308 -187338
832428620490467712 88278 321 -10598 -187392
832428620508680960 87458 -120 -10866 -187398
832428620526894080 86502 -551 -11196 -187395
832428620545107178 85753 -961 -11466 -187347
832428620563320320 85400 -1201 -11645 -187412
832428620581533440 85375 -1185 -11581 -187368
832428620599746560 85740 -963 -11486 -187370
832428620617959808 86154 -765 -11332 -187405
832428620636172928 86533 -526 -11192 -187344
832428620654386048 86829 -353 -11078 -187323
832428620672599168 87174 -252 -10960 -187355
832428620690812288 87339 -145 -10929 -187340
832428620709025408 87635 6 -10804 -187339
832428620727238656 87992 161 -10682 -187409
832428620745451776 88469 402 -10559 -187351
832428620763664896 89085 778 -10291 -187384
832428620781878016 89427 1028 -10087 -187380
832428620800091136 89293 849 -10210 -187411
832428620818304256 88610 509 -10445 -187457
832428620836517504 87692 56 -10798 -187376
832428620854730624 86674 -506 -11197 -187381
832428620872943744 85876 -938 -11541 -187379
832428620891156864 85395 -1203 -11694 -187351
832428620909369984 85286 -1187 -11719 -187407
832428620927583232 85556 -1081 -11592 -187400
832428620945796352 85988 -840 -11397 -187383
832428620964009472 86532 -550 -11182 -187395
832428620982222592 86891 -382 -11110 -187376
832428621000435712 87198 -212 -10953 -187306
832428621018648832 87312 -148 -10930 -187384
832428621036862080 87451 -102 -10847 -187368
832428621055075200 87811 128 -10724 -187381
832428621073288320 88278 362 -10539 -187370
832428621091501440 88813 616 -10294 -187428
832428621109714560 89354 896 -10144 -187407
832428621127927680 89352 896 -10117 -187408
832428621146140928 88944 691 -10267 -187376
832428621164354048 88151 251 -10650 -187378
832428621182567164 87096 -268 -11017 -187405
832428621200779392 86190 -751 -11330 -187376
832428621218991616 85510 -1114 -11585 -187403
832428621237203968 85143 -1253 -11776 -187443
832428621255416192 85376 -1092 -11650 -187376
832428621273628416 85780 -960 -11560 -187393
832428621291840768 86305 -691 -11351 -187359
832428621310052992 86787 -396 -11103 -187371
832428621328265344 87115 -218 -10969 -187320
832428621346477568 87339 -158 -10912 -187366
832428621364689792 87581 -64 -10868 -187369
832428621382902144 87801 51 -10781 -187350
832428621401114368 88175 282 -10640 -187370
832428621419326592 88597 548 -10459 -187363
832428621437538944 89045 819 -10248 -187334
832428621455751168 89299 950 -10197 -187364
832428621473963392 88999 797 -10238 -187375
832428621492175744 88304 392 -10542 -187387
832428621510387968 87301 -157 -10908 -187395
832428621528600320 86413 -653 -11307 -187338
832428621546812544 85762 -1023 -11530 -187408
832428621565024768 85453 -1118 -11574 -187338
832428621583237120 85472 -1152 -11616 -187329
832428621601449344 85712 -995 -11542 -187329
832428621619661568 86114 -795 -11404 -187383
832428621637873920 86523 -583 -11252 -187363
832428621656086144 86897 -372 -11073 -187402
832428621674298368 87220 -236 -11005 -187393
832428621692510720 87428 -33 -10890 -187330
832428621710722944 87688 47 -10772 -187352
832428621728935296 88040 196 -10689 -187375
832428621747147520 88626 553 -10471 -187389
832428621765359744 89192 837 -10216 -187349
832428621783572096 89388 915 -10178 -187343
832428621801784320 89156 838 -10219 -187366
832428621819996632 88430 371 -10494 -187353
832428621838208896 87472 -137 -10915 -187405
832428621856421120 86535 -559 -11232 -187321
832428621874633472 85827 -965 -11504 -187341
832428621892845696 85360 -1242 -11682 -187407
832428621911057920 85262 -1209 -11713 -187413
832428621929270272 85589 -1085 -11509 -187398
832428621947482496 86087 -772 -11359 -187347
832428621965694848 86594 -531 -11220 -187336
832428621983907072 86959 -369 -11049 -187328
832428622002119296 87131 -273 -11051 -187389
832428622020331648 87231 -191 -10976 -187371
832428622038543872 87431 -135 -10889 -187394
832428622056756096 87857 106 -10705 -187371
832428622074968448 88292 292 -10584 -187405
832428622093180672 88924 645 -10313 -187361
832428622111392896 89358 880 -10173 -187373
832428622129605248 89333 894 -10056 -187388
832428622147817472 88820 650 -10316 -187353
832428622166029824 88003 224 -10587 -187349
832428622184242048 86907 -349 -11081 -187422
832428622202454272 85961 -839 -11442 -187369
832428622220666624 85356 -1192 -11680 -187359
832428622238878848 85144 -1292 -11746 -187406
832428622257091072 85402 -1228 -11671 -187378
832428622275303424 85797 -997 -11526 -187380
832428622293515648 86336 -664 -11326 -187374
832428622311727872 86771 -364 -11159 -187406
832428622329940224 87121 -259 -11014 -187355
832428622348152448 87363 -147 -10899 -187404
832428622366364800 87547 -103 -10811 -187355
832428622384577024 87744 39 -10781 -187439
832428622402789248 88098 230 -10646 -187340
832428622421001600 88596 472 -10454 -187374
832428622439213824 89200 802 -10208 -187368
832428622457426100 89341 880 -10149 -187408
832428622475639168 88971 679 -10274 -187371
832428622493852288 88174 333 -10596 -187387
832428622512065408 87194 -214 -10988 -187410
832428622530278656 86361 -645 -11241 -187361
832428622548491776 85710 -1002 -11557 -187421
832428622566704896 85326 -1153 -11646 -187428
832428622584918016 85325 -1154 -11711 -187413
832428622603131136 85659 -1013 -11606 -187397
832428622621344256 86107 -749 -11377 -187361
832428622639557504 86648 -570 -11175 -187376
832428622657770624 86981 -396 -11071 -187395
832428622675983744 87255 -198 -10970 -187366
832428622694196864 87425 -85 -10929 -187367
832428622712409984 87713 -28 -10805 -187332
832428622730623104 88187 367 -10573 -187335
832428622748836352 88607 597 -10407 -187354
832428622767049472 89134 814 -10219 -187337
832428622785262592 89293 890 -10141 -187377
832428622803475712 89005 731 -10264 -187407
832428622821688832 88414 457 -10491 -187324
832428622839901952 87540 -43 -10867 -187374
832428622858115200 86561 -588 -11277 -187393
832428622876328320 85791 -959 -11542 -187449
832428622894541440 85383 -1141 -11625 -187381
832428622912754560 85339 -1211 -11612 -187374
832428622930967680 85748 -1010 -11459 -187359
832428622949180928 86172 -755 -11299 -187334
832428622967394048 86577 -551 -11187 -187387
832428622985607168 86996 -312 -11011 -187318
832428623003820288 87183 -266 -11022 -187345
832428623022033408 87350 -112 -10902 -187352
832428623040246528 87594 -46 -10767 -187309
832428623058459776 87955 229 -10692 -187321
832428623076672896 88417 418 -10540 -187357
832428623094886078 89062 768 -10249 -187295
832428623113099136 89462 938 -10113 -187377
832428623131312256 89456 925 -10093 -187357
832428623149525376 88847 615 -10344 -187389
832428623167738624 87917 119 -10686 -187342
832428623185951744 86806 -431 -11120 -187347
832428623204164864 85877 -900 -11457 -187393
832428623222377984 85468 -1131 -11642 -187326
832428623240591104 85300 -1195 -11691 -187364
832428623258804224 85513 -1078 -11580 -187326
832428623277017472 85945 -869 -11428 -187378
832428623295230592 86444 -537 -11233 -187332
832428623313443712 86927 -348 -11076 -187319
832428623331656832 87298 -159 -10913 -187289
832428623349869952 87395 -114 -10884 -187293
832428623368083072 87511 -11 -10765 -187328
832428623386296320 87787 121 -10682 -187321
832428623404509440 88042 284 -10628 -187368
832428623422722560 88698 553 -10387 -187344
832428623440935680 89257 861 -10185 -187385
832428623459148800 89324 880 -10093 -187325
832428623477362048 88866 661 -10294 -187377
832428623495575168 88098 228 -10575 -187345
832428623513788288 87229 -237 -10943 -187349
832428623532001408 86397 -634 -11270 -187310
832428623550214528 85610 -1006 -11579 -187363
832428623568427648 85301 -1155 -11644 -187292
832428623586640896 85239 -1221 -11680 -187358
832428623604854016 85654 -1039 -11517 -187330
832428623623067136 86233 -744 -11362 -187360
832428623641280256 86732 -488 -11137 -187339
832428623659493376 87094 -298 -11033 -187364
832428623677706496 87291 -252 -10957 -187325
832428623695919744 87306 -187 -10943 -187400
832428623714132864 87735 52 -10710 -187309
832428623732346064 88142 308 -10541 -187345
832428623750559488 88581 504 -10408 -187349
832428623768772864 89161 810 -10192 -187342
832428623786986240 89256 898 -10193 -187354
832428623805199616 89018 722 -10241 -187360
832428623823412992 88344 382 -10484 -187340
832428623841626240 87432 -125 -10874 -187411
832428623859839616 86519 -639 -11259 -187400
832428623878052992 85800 -1001 -11429 -187306
832428623896266368 85403 -1167 -11653 -187370
832428623914479744 85476 -1157 -11640 -187359
832428623932693120 85833 -977 -11436 -187329
832428623950906496 86107 -825 -11392 -187375
832428623969119872 86508 -594 -11187 -187410
832428623987333120 86821 -416 -11090 -187349
832428624005546496 87084 -260 -11029 -187345
832428624023759872 87354 -209 -10913 -187341
832428624041973248 87628 -5 -10850 -187377
832428624060186624 87946 232 -10661 -187329
832428624078400000 88466 445 -10477 -187373
832428624096613376 89086 729 -10254 -187359
832428624114826752 89482 928 -10039 -187316
832428624133040000 89353 885 -10086 -187303
832428624151253376 88668 477 -10435 -187339
832428624169466752 87684 46 -10817 -187370
832428624187680128 86589 -500 -11231 -187394
832428624205893504 85864 -868 -11503 -187322
832428624224106880 85420 -1151 -11678 -187327
832428624242320256 85337 -1184 -11685 -187289
832428624260533632 85599 -1122 -11589 -187327
832428624278746880 86015 -926 -11417 -187355
832428624296960256 86519 -659 -11267 -187372
832428624315173632 86988 -359 -11052 -187351
832428624333387008 87209 -173 -10965 -187415
832428624351600384 87322 -110 -10942 -187360
832428624369813680 87466 -3 -10789 -187332
832428624388027392 87709 107 -10677 -187370
832428624406241152 88325 366 -10527 -187352
832428624424455040 88871 674 -10330 -187338
832428624442668800 89307 908 -10101 -187345
832428624460882560 89360 953 -10082 -187309
832428624479096320 88840 635 -10287 -187327
832428624497310208 88113 301 -10567 -187364
832428624515523968 87177 -229 -10965 -187368
832428624533737728 86271 -675 -11293 -187323
832428624551951616 85569 -1026 -11547 -187358
832428624570165376 85241 -1221 -11650 -187335
832428624588379136 85377 -1103 -11594 -187319
832428624606592896 85782 -919 -11521 -187313
832428624624806784 86277 -670 -11379 -187375
832428624643020544 86733 -497 -11157 -187366
832428624661234304 87015 -379 -11065 -187361
832428624679448192 87317 -218 -10944 -187407
832428624697661952 87539 -61 -10822 -187392
832428624715875712 87839 86 -10701 -187377
832428624734089472 88159 286 -10579 -187398
832428624752303360 88505 565 -10406 -187408
832428624770517120 89074 806 -10168 -187345
832428624788730880 89246 948 -10096 -187316
832428624806944768 88970 733 -10283 -187357
832428624825158528 88223 445 -10550 -187369
832428624843372288 87295 -109 -10957 -187337
832428624861586048 86377 -679 -11257 -187344
832428624879799936 85750 -1000 -11525 -187336
832428624898013696 85474 -1167 -11617 -187272
832428624916227456 85444 -1144 -11597 -187355
832428624934441344 85694 -989 -11544 -187385
832428624952655104 86176 -757 -11357 -187350
832428624970868864 86570 -575 -11215 -187387
832428624989082624 86939 -330 -11059 -187395
832428625007296554 87165 -142 -10959 -187371
832428625025509632 87394 -122 -10880 -187359
832428625043722752 87633 -23 -10749 -187372
832428625061935872 88065 233 -10530 -187310
832428625080149120 88508 468 -10453 -187359
832428625098362240 89086 801 -10241 -187350
832428625116575360 89438 957 -10080 -187358
832428625134788480 89228 871 -10184 -187328
832428625153001600 88483 481 -10493 -187414
832428625171214720 87608 -30 -10807 -187377
832428625189427968 86554 -506 -11228 -187376
832428625207641088 85768 -904 -11482 -187432
832428625225854208 85322 -1155 -11636 -187398
832428625244067328 85304 -1210 -11683 -187308
832428625262280448 85585 -1063 -11558 -187345
832428625280493568 86073 -790 -11390 -187310
832428625298706816 86614 -470 -11144 -187330
832428625316919936 86924 -345 -10980 -187381
832428625335133056 87130 -272 -10942 -187376
832428625353346176 87200 -167 -10929 -187358
832428625371559296 87426 -76 -10857 -187310
832428625389772416 87846 55 -10709 -187345
832428625407985664 88327 350 -10513 -187350
832428625426198784 88890 658 -10253 -187351
832428625444411904 89295 940 -10145 -187395
832428625462625024 89291 858 -10158 -187362
832428625480838144 88835 654 -10297 -187373
832428625499051392 87995 204 -10619 -187339
832428625517264512 86998 -251 -10971 -187352
832428625535477632 86041 -771 -11373 -187363
832428625553690752 85416 -1097 -11613 -187367
832428625571903872 85197 -1266 -11769 -187413
832428625590116992 85416 -1122 -11684 -187428
832428625608330240 85845 -915 -11469 -187393
832428625626543360 86367 -624 -11255 -187351
832428625644756532 86794 -437 -11110 -187336
832428625662968704 87108 -299 -10985 -187302
832428625681180928 87356 -161 -10873 -187370
832428625699393280 87611 -13 -10752 -187351
832428625717605504 87774 110 -10755 -187415
832428625735817728 88161 312 -10562 -187378
832428625754030080 88573 523 -10398 -187391
832428625772242304 89196 791 -10201 -187388
832428625790454656 89374 931 -10147 -187333
832428625808666880 88965 775 -10292 -187369
832428625826879104 88291 359 -10541 -187336
832428625845091456 87274 -205 -10947 -187385
832428625863303680 86416 -623 -11259 -187353
832428625881515904 85787 -929 -11521 -187347
832428625899728256 85397 -1151 -11607 -187361
832428625917940480 85411 -1125 -11627 -187386
832428625936152704 85680 -983 -11522 -187385
832428625954365056 86044 -819 -11411 -187304
832428625972577280 86521 -517 -11235 -187345
832428625990789632 87003 -340 -11057 -187369
832428626009001856 87274 -178 -10986 -187343
832428626027214080 87403 -107 -10897 -187373
832428626045426432 87624 -26 -10797 -187385
832428626063638656 88068 223 -10634 -187355
832428626081850880 88643 597 -10419 -187340
832428626100063232 89175 831 -10194 -187384
832428626118275456 89380 939 -10116 -187356
832428626136487680 89134 755 -10200 -187354
832428626154700032 88400 386 -10490 -187334
832428626172912256 87425 -85 -10847 -187424
832428626191124608 86531 -562 -11217 -187389
832428626209336832 85813 -946 -11511 -187377
832428626227549056 85459 -1168 -11669 -187414
832428626245761408 85302 -1197 -11713 -187366
832428626263973632 85661 -1005 -11568 -187367
832428626282186000 86140 -797 -11352 -187388
832428626300398208 86592 -604 -11174 -187393
832428626318610432 86886 -424 -11084 -187421
832428626336822784 87049 -270 -11017 -187349
832428626355035008 87254 -146 -10944 -187370
832428626373247232 87513 -57 -10868 -187372
832428626391459584 87936 176 -10728 -187366
832428626409671808 88347 406 -10549 -187364
832428626427884160 88952 692 -10309 -187324
832428626446096384 89409 881 -10119 -187321
832428626464308608 89337 914 -10096 -187351
832428626482520960 88773 618 -10314 -187350
832428626500733184 87858 108 -10646 -187409
832428626518945408 86867 -454 -11021 -187304
832428626537157760 85868 -899 -11400 -187371
832428626555369984 85390 -1121 -11661 -187298
832428626573582208 85268 -1205 -11667 -187337
832428626591794560 85594 -1078 -11580 -187325
832428626610006784 86004 -910 -11440 -187327
832428626628219136 86457 -623 -11268 -187352
832428626646431360 86902 -359 -11036 -187290
832428626664643584 87279 -197 -10942 -187345
832428626682855936 87367 -72 -10839 -187340
832428626701068160 87574 -7 -10790 -187316
832428626719280384 87888 146 -10696 -187306
832428626737492736 88139 253 -10645 -187355
832428626755704960 88633 534 -10415 -187359
832428626773917184 89260 878 -10191 -187318
832428626792129536 89348 949 -10127 -187320
832428626810341760 89007 801 -10276 -187336
832428626828554112 88171 296 -10627 -187377
832428626846766336 87289 -191 -10872 -187324
832428626864978560 86343 -631 -11274 -187341
832428626883190912 85716 -1002 -11538 -187362
832428626901403136 85359 -1150 -11640 -187342
832428626919615468 85329 -1203 -11639 -187371
832428626937827712 85634 -1007 -11541 -187332
832428626956039936 86251 -695 -11298 -187323
832428626974252288 86735 -446 -11142 -187333
832428626992464512 87126 -237 -10974 -187305
832428627010676736 87285 -148 -10938 -187346
832428627028889088 87496 -66 -10873 -187341
832428627047101312 87774 133 -10726 -187389
832428627065313664 88173 365 -10543 -187326
832428627083525888 88722 578 -10398 -187311
832428627101738112 89255 914 -10129 -187325
832428627119950464 89348 906 -10132 -187361
832428627138162688 89069 823 -10173 -187306
832428627156374912 88317 387 -10557 -187379
832428627174587264 87435 -90 -10847 -187363
832428627192799488 86583 -487 -11170 -187288
832428627211011712 85747 -864 -11493 -187354
832428627229224064 85364 -1116 -11631 -187317
832428627247436288 85400 -1178 -11671 -187339
832428627265648640 85690 -1023 -11542 -187343
832428627283860864 86177 -750 -11358 -187313
832428627302073088 86606 -521 -11176 -187295
832428627320285440 86911 -363 -11070 -187366
832428627338497664 87158 -249 -10924 -187315
832428627356709888 87327 -166 -10896 -187296
832428627374922240 87646 -15 -10828 -187324
832428627393134464 88028 234 -10661 -187274
832428627411346688 88497 486 -10446 -187284
832428627429559040 89056 779 -10229 -187327
832428627447771264 89429 965 -10098 -187333
832428627465983616 89358 952 -10110 -187373
832428627484195840 88654 581 -10416 -187362
832428627502408064 87744 125 -10687 -187368
832428627520620416 86721 -440 -11185 -187361
832428627538832640 85899 -893 -11506 -187391
832428627557044936 85436 -1174 -11600 -187366
832428627575258112 85353 -1186 -11657 -187390
832428627593471232 85606 -1045 -11504 -187340
832428627611684352 86057 -840 -11351 -187358
832428627629897600 86637 -638 -11207 -187286
832428627648110720 86972 -333 -11029 -187375
832428627666323840 87210 -205 -10995 -187319
832428627684536960 87477 -67 -10883 -187259
832428627702750080 87530 -64 -10865 -187325
832428627720963200 87778 79 -10786 -187273
832428627739176448 88236 312 -10558 -187330
832428627757389568 88810 632 -10309 -187332
832428627775602688 89334 919 -10147 -187362
832428627793815808 89411 926 -10099 -187313
832428627812028928 88960 691 -10244 -187359
832428627830242048 88171 337 -10598 -187333
832428627848455296 87199 -233 -10936 -187343
832428627866668416 86219 -652 -11302 -187320
832428627884881536 85532 -1027 -11578 -187345
832428627903094656 85199 -1187 -11720 -187364
832428627921307776 85309 -1153 -11640 -187336
832428627939520896 85746 -937 -11509 -187333
832428627957734144 86280 -679 -11298 -187298
832428627975947264 86731 -415 -11165 -187355
832428627994160384 87063 -194 -10984 -187333
832428628012373504 87233 -139 -10940 -187325
832428628030586624 87454 -44 -10845 -187307
832428628048799872 87796 91 -10738 -187292
832428628067012992 88144 291 -10593 -187321
832428628085226112 88652 547 -10409 -187312
832428628103439232 89164 905 -10177 -187286
832428628121652352 89312 858 -10127 -187286
832428628139865472 88986 781 -10232 -187309
832428628158078720 88363 365 -10485 -187321
832428628176291840 87354 -105 -10908 -187284
832428628194504914 86479 -604 -11291 -187330
832428628212718080 85753 -978 -11461 -187364
832428628230931200 85455 -1106 -11583 -187368
832428628249144320 85440 -1113 -11571 -187316
832428628267357568 85781 -945 -11486 -187336
832428628285570688 86167 -768 -11318 -187407
832428628303783808 86550 -590 -11208 -187355
832428628321996928 86953 -414 -11072 -187385
832428628340210048 87186 -273 -10991 -187340
832428628358423168 87388 -145 -10903 -187343
832428628376636416 87687 29 -10731 -187294
832428628394849536 88085 171 -10640 -187293
832428628413062656 88546 504 -10437 -187327
832428628431275776 89226 823 -10163 -187290
832428628449488896 89486 1007 -10072 -187321
832428628467702016 89284 964 -10117 -187274
832428628485915264 88600 532 -10362 -187295
832428628504128384 87577 40 -10852 -187375
832428628522341504 86643 -482 -11132 -187303
832428628540554624 85851 -929 -11409 -187373
832428628558767744 85454 -1103 -11542 -187322
832428628576980992 85339 -1156 -11625 -187338
832428628595194112 85735 -1019 -11495 -187324
832428628613407232 86195 -768 -11344 -187329
832428628631620352 86638 -489 -11180 -187319
832428628649833472 86987 -333 -11014 -187336
832428628668046592 87213 -141 -10923 -187323
832428628686259840 87299 -76 -10832 -187364
832428628704472960 87414 -29 -10764 -187374
832428628722686080 87822 106 -10674 -187320
832428628740899200 88309 418 -10475 -187333
832428628759112320 88917 718 -10282 -187328
832428628777325440 89411 1014 -10059 -187338
832428628795538688 89350 925 -10115 -187362
832428628813751808 88929 676 -10263 -187322
832428628831964900 88070 281 -10594 -187327
832428628850178048 86986 -283 -11009 -187397
832428628868391168 86112 -736 -11305 -187311
832428628886604288 85507 -1068 -11539 -187282
832428628904817536 85292 -1289 -11728 -187352
832428628923030656 85391 -1167 -11678 -187373
832428628941243776 85885 -910 -11460 -187273
832428628959456896 86380 -664 -11315 -187368
832428628977670016 86815 -403 -11060 -187296
832428628995883136 87176 -221 -10938 -187321
832428629014096384 87455 -68 -10827 -187346
832428629032309504 87628 5 -10809 -187347
832428629050522624 87783 133 -10740 -187340
832428629068735744 88208 363 -10526 -187285
832428629086948864 88684 586 -10336 -187274
832428629105161984 89202 796 -10225 -187367
832428629123375232 89345 897 -10117 -187304
832428629141588352 89000 736 -10235 -187317
832428629159801472 88283 345 -10468 -187306
832428629178014592 87279 -136 -10857 -187304
832428629196227712 86343 -647 -11236 -187371
832428629214440960 85754 -971 -11478 -187327
832428629232654080 85412 -1114 -11572 -187347
832428629250867200 85456 -1122 -11602 -187343
832428629269080320 85735 -958 -11464 -187300
832428629287293440 86174 -712 -11356 -187343
832428629305506560 86702 -478 -11124 -187324
832428629323719808 86984 -320 -11001 -187354
832428629341932928 87270 -169 -10883 -187339
832428629360146048 87487 -158 -10850 -187320
832428629378359168 87642 47 -10778 -187358
832428629396572288 88103 178 -10670 -187319
832428629414785408 88566 475 -10414 -187350
832428629432998656 89095 778 -10277 -187423
832428629451211776 89416 945 -10157 -187368
832428629469424886 89212 860 -10183 -187313
832428629487638912 88413 460 -10496 -187319
832428629505852928 87519 -55 -10866 -187345
832428629524066944 86517 -577 -11166 -187360
832428629542280960 85797 -958 -11480 -187343
832428629560494976 85394 -1194 -11648 -187357
832428629578708992 85337 -1195 -11659 -187429
832428629596923008 85790 -958 -11480 -187381
832428629615137024 86206 -767 -11311 -187374
832428629633351040 86647 -571 -11136 -187350
832428629651565056 87030 -345 -11015 -187345
832428629669779072 87172 -211 -10941 -187351
832428629687993088 87306 -164 -10895 -187287
832428629706207104 87623 -61 -10783 -187266
832428629724421120 87959 183 -10702 -187324
832428629742635136 88478 463 -10422 -187299
832428629760849152 89104 759 -10163 -187252
832428629779063168 89527 942 -10015 -187244
832428629797277184 89453 975 -10080 -187298
832428629815491200 88861 691 -10310 -187291
832428629833705216 87943 215 -10592 -187256
832428629851919232 86907 -365 -11013 -187324
832428629870133248 86046 -783 -11342 -187318
832428629888347264 85520 -1143 -11612 -187319
832428629906561280 85281 -1235 -11699 -187322
832428629924775296 85543 -1103 -11628 -187301
832428629942989312 85937 -913 -11408 -187326
832428629961203328 86444 -596 -11243 -187336
832428629979417344 86875 -336 -11032 -187288
832428629997631360 87263 -188 -10896 -187301
832428630015845376 87448 -78 -10877 -187338
832428630034059392 87537 -80 -10794 -187335
832428630052273408 87773 75 -10715 -187383
832428630070487424 88087 226 -10595 -187383
832428630088701440 88651 525 -10431 -187369
832428630106915390 89236 860 -10121 -187302
832428630125126912 89316 906 -10157 -187356
832428630143338496 88975 716 -10280 -187359
832428630161550208 88204 291 -10548 -187345
832428630179761792 87248 -142 -10861 -187323
832428630197973376 86377 -657 -11270 -187357
832428630216184960 85691 -1014 -11558 -187366
832428630234396672 85367 -1187 -11673 -187313
832428630252608256 85408 -1146 -11634 -187336
832428630270819840 85662 -1031 -11521 -187347
832428630289031424 86179 -778 -11354 -187363
832428630307243136 86655 -474 -11150 -187319
832428630325454720 87026 -302 -11056 -187358
832428630343666304 87190 -285 -11009 -187419
832428630361877888 87367 -135 -10917 -187381
832428630380089600 87845 151 -10698 -187345
832428630398301184 88219 352 -10576 -187327
832428630416512768 88617 541 -10385 -187346
832428630434724352 89137 802 -10151 -187329
832428630452936064 89322 883 -10099 -187328
832428630471147648 89013 744 -10203 -187324
832428630489359232 88287 341 -10523 -187354
832428630507570816 87416 -124 -10879 -187344
832428630525782528 86448 -593 -11278 -187368
832428630543994112 85825 -984 -11559 -187338
832428630562205696 85462 -1192 -11659 -187380
832428630580417280 85538 -1086 -11618 -187339
832428630598628992 85790 -941 -11505 -187384
832428630616840576 86188 -745 -11367 -187371
832428630635052160 86568 -556 -11216 -187341
832428630653263744 86873 -342 -11081 -187344
832428630671475456 87088 -259 -11031 -187400
832428630689687040 87375 -163 -10994 -187379
832428630707898624 87587 -54 -10861 -187332
832428630726110208 87921 93 -10714 -187387
832428630744321960 88411 398 -10506 -187352
832428630762534016 89002 695 -10288 -187395
832428630780746112 89441 927 -10093 -187417
832428630798958080 89395 909 -10081 -187405
832428630817170176 88759 650 -10343 -187380
832428630835382272 87776 93 -10770 -187393
832428630853594240 86626 -472 -11148 -187324
832428630871806336 85826 -900 -11441 -187360
832428630890018432 85394 -1211 -11660 -187361
832428630908230400 85284 -1190 -11724 -187312
832428630926442496 85528 -1116 -11623 -187358
832428630944654592 85926 -869 -11404 -187388
832428630962866560 86553 -581 -11192 -187322
832428630981078656 87049 -330 -11010 -187349
832428630999290752 87301 -193 -10882 -187295
832428631017502720 87389 -95 -10873 -187332
832428631035714816 87539 -65 -10867 -187354
832428631053926912 87728 113 -10693 -187299
832428631072138880 88188 310 -10559 -187333
832428631090350976 88830 574 -10372 -187373
832428631108563072 89285 876 -10121 -187323
832428631126775040 89339 910 -10091 -187311
832428631144987136 88932 676 -10287 -187363
832428631163199232 88256 329 -10549 -187304
832428631181411200 87308 -211 -10949 -187313
832428631199623296 86278 -766 -11334 -187349
832428631217835392 85541 -1158 -11626 -187341
832428631236047360 85253 -1226 -11713 -187344
832428631254259456 85316 -1274 -11721 -187350
832428631272471424 85725 -979 -11477 -187310
832428631290683520 86202 -691 -11274 -187324
832428631308895616 86764 -487 -11090 -187299
832428631327107584 87184 -260 -10889 -187323
832428631345319680 87331 -144 -10947 -187340
832428631363531776 87590 48 -10771 -187317
832428631381743798 87929 141 -10675 -187301
832428631399955200 88260 317 -10578 -187349
832428631418166656 88716 547 -10353 -187315
832428631436377984 89191 831 -10198 -187328
832428631454589440 89274 840 -10202 -187317
832428631472800768 88984 694 -10338 -187366
832428631491012224 88394 360 -10538 -187347
832428631509223552 87405 -132 -10919 -187389
832428631527435008 86421 -660 -11248 -187327
832428631545646336 85771 -998 -11538 -187353
832428631563857792 85432 -1154 -11635 -187351
832428631582069248 85494 -1133 -11633 -187276
832428631600280576 85765 -942 -11476 -187340
832428631618492032 86136 -778 -11357 -187386
832428631636703360 86525 -551 -11204 -187373
832428631654914816 86939 -345 -11090 -187360
832428631673126144 87166 -216 -10970 -187376
832428631691337600 87350 -132 -10895 -187337
832428631709548928 87621 -18 -10790 -187344
832428631727760384 88014 234 -10629 -187341
832428631745971712 88528 480 -10439 -187337
832428631764183168 89189 824 -10165 -187336
832428631782394624 89533 1058 -10033 -187336
832428631800605952 89254 854 -10204 -187338
832428631818817408 88582 568 -10438 -187274
832428631837028736 87549 31 -10829 -187361
832428631855240192 86653 -520 -11139 -187357
832428631873451520 85955 -895 -11396 -187306
832428631891662976 85496 -1112 -11533 -187319
832428631909874304 85305 -1183 -11647 -187330
832428631928085760 85569 -1067 -11579 -187304
832428631946297216 86029 -844 -11405 -187381
832428631964508544 86567 -504 -11203 -187352
832428631982720000 86918 -345 -11038 -187359
832428632000931328 87191 -204 -11008 -187393
832428632019142750 87246 -140 -10977 -187425
832428632037355008 87441 -90 -10890 -187383
832428632055567232 87795 80 -10730 -187342
832428632073779456 88235 293 -10523 -187353
832428632091991808 88876 673 -10293 -187323
832428632110204032 89346 953 -10092 -187305
832428632128416256 89290 945 -10099 -187351
832428632146628480 88886 770 -10240 -187306
832428632164840832 88022 283 -10564 -187346
832428632183053056 87036 -277 -10958 -187352
832428632201265280 86083 -787 -11375 -187321
832428632219477504 85449 -1152 -11622 -187346
832428632237689728 85156 -1283 -11751 -187364
832428632255902080 85334 -1197 -11708 -187434
832428632274114304 85817 -964 -11440 -187434
832428632292326528 86358 -666 -11244 -187430
832428632310538752 86748 -489 -11140 -187350
832428632328751104 87123 -301 -11048 -187369
832428632346963328 87354 -174 -10936 -187373
832428632365175552 87591 20 -10798 -187373
832428632383387776 87879 132 -10653 -187261
832428632401600000 88193 363 -10527 -187316
832428632419812352 88640 535 -10443 -187354
832428632438024576 89087 841 -10218 -187344
832428632456236800 89300 934 -10157 -187357
832428632474449024 88998 739 -10267 -187361
832428632492661376 88252 379 -10569 -187336
832428632510873600 87332 -135 -10872 -187341
832428632529085824 86374 -664 -11256 -187341
832428632547298048 85742 -931 -11489 -187332
832428632565510272 85424 -1165 -11651 -187311
832428632583722624 85442 -1114 -11636 -187383
832428632601934848 85770 -987 -11484 -187344
832428632620147072 86111 -768 -11396 -187362
832428632638359296 86639 -597 -11209 -187293
832428632656571648 86943 -351 -11079 -187336
832428632674783834 87228 -207 -10925 -187330
832428632692996224 87433 -63 -10878 -187332
832428632711208576 87660 74 -10783 -187308
832428632729420800 88050 229 -10691 -187327
832428632747633152 88618 515 -10451 -187325
832428632765845504 89204 857 -10164 -187336
832428632784057856 89450 1000 -10097 -187308
832428632802270080 89169 850 -10177 -187335
832428632820482432 88445 448 -10452 -187338
832428632838694784 87559 -40 -10790 -187346
832428632856907008 86572 -535 -11197 -187343
832428632875119360 85864 -941 -11523 -187340
832428632893331712 85411 -1125 -11684 -187323
832428632911543936 85466 -1091 -11632 -187264
832428632929756288 85672 -1012 -11526 -187319
832428632947968640 86154 -802 -11356 -187345
832428632966180992 86615 -522 -11139 -187385
832428632984393216 86971 -301 -11059 -187343
832428633002605568 87166 -243 -10940 -187380
832428633020817920 87259 -176 -10947 -187412
832428633039030144 87530 -97 -10855 -187340
832428633057242496 87933 139 -10687 -187324
832428633075454848 88439 424 -10531 -187292
832428633093667072 88960 693 -10299 -187346
832428633111879424 89275 860 -10185 -187389
832428633130091776 89335 923 -10127 -187362
832428633148304128 88820 651 -10305 -187303
832428633166516352 87979 177 -10601 -187328
832428633184728704 86901 -381 -11004 -187333
832428633202941056 85968 -805 -11341 -187346
832428633221153280 85347 -1200 -11675 -187329
832428633239365632 85173 -1258 -11692 -187327
832428633257577984 85456 -1117 -11582 -187336
832428633275790208 85885 -874 -11477 -187378
832428633294002560 86438 -625 -11257 -187347
832428633312214820 86823 -441 -11094 -187342
832428633330428800 87275 -180 -10900 -187327
832428633348642816 87391 -59 -10869 -187338
832428633366856832 87581 17 -10783 -187287
832428633385070848 87838 148 -10691 -187282
832428633403284864 88096 302 -10547 -187323
832428633421498880 88585 614 -10432 -187344
832428633439712896 89177 874 -10211 -187328
832428633457926912 89323 895 -10169 -187350
832428633476140928 88967 731 -10295 -187387
832428633494354944 88254 347 -10572 -187370
832428633512568960 87272 -133 -10972 -187392
832428633530782976 86390 -647 -11275 -187341
832428633548996992 85804 -985 -11514 -187392
832428633567211008 85359 -1181 -11711 -187439
832428633585425024 85310 -1143 -11645 -187361
832428633603639040 85557 -1035 -11607 -187466
832428633621853056 86155 -778 -11374 -187388
832428633640067072 86743 -460 -11211 -187345
832428633658281088 87024 -298 -11063 -187420
832428633676495104 87301 -128 -10881 -187403
832428633694709120 87465 -56 -10869 -187349
832428633712923136 87725 74 -10762 -187403
832428633731137152 88187 304 -10607 -187361
832428633749351168 88629 555 -10440 -187354
832428633767565184 89220 854 -10189 -187372
832428633785779200 89377 959 -10106 -187380
832428633803993216 89056 763 -10241 -187404
832428633822207232 88349 370 -10496 -187367
832428633840421248 87435 -90 -10859 -187354
832428633858635264 86504 -524 -11163 -187327
832428633876849280 85723 -1009 -11482 -187413
832428633895063296 85372 -1249 -11705 -187338
832428633913277312 85409 -1241 -11680 -187354
832428633931491328 85745 -1068 -11559 -187346
832428633949705324 86159 -762 -11371 -187357
832428633967918464 86592 -596 -11250 -187332
832428633986131584 86900 -381 -11118 -187387
832428634004344704 87117 -289 -10975 -187397
832428634022557952 87274 -105 -10919 -187374
832428634040771072 87538 0 -10856 -187356
832428634058984192 87923 107 -10766 -187377
832428634077197312 88413 407 -10498 -187326
832428634095410432 88956 674 -10279 -187366
832428634113623552 89456 918 -10089 -187346
832428634131836800 89411 938 -10130 -187366
832428634150049920 88797 591 -10362 -187322
832428634168263040 87843 102 -10705 -187369
832428634186476160 86723 -448 -11168 -187445
832428634204689280 85853 -930 -11491 -187383
832428634222902400 85320 -1228 -11687 -187426
832428634241115648 85273 -1190 -11657 -187357
832428634259328768 85519 -1118 -11657 -187410
832428634277541888 85939 -921 -11457 -187363
832428634295755008 86418 -630 -11265 -187398
832428634313968128 86938 -335 -11059 -187371
832428634332181376 87209 -205 -10954 -187385
832428634350394496 87445 -98 -10911 -187330
832428634368607616 87568 -12 -10823 -187352
832428634386820736 87774 119 -10687 -187392
832428634405033856 88134 269 -10567 -187347
832428634423246976 88755 593 -10331 -187346
832428634441460224 89291 939 -10108 -187380
832428634459673344 89312 963 -10160 -187357
832428634477886464 88939 709 -10309 -187369
832428634496099584 88152 274 -10551 -187307
832428634514312704 87223 -152 -10907 -187350
832428634532525824 86253 -657 -11356 -187407
832428634550739072 85668 -1007 -11516 -187350
832428634568952192 85292 -1239 -11697 -187369
832428634587165310 85300 -1246 -11691 -187332
832428634605378432 85735 -1003 -11557 -187319
832428634623591552 86212 -780 -11364 -187337
832428634641804672 86724 -470 -11172 -187361
832428634660017920 87072 -216 -11051 -187364
832428634678231040 87322 -123 -10917 -187289
832428634696444160 87483 -116 -10889 -187370
832428634714657280 87749 71 -10726 -187383
832428634732870400 88174 332 -10557 -187384
832428634751083520 88619 518 -10443 -187387
832428634769296768 89211 833 -10155 -187359
832428634787509888 89255 896 -10159 -187359
832428634805723008 89022 777 -10243 -187359
832428634823936128 88312 383 -10575 -187359
832428634842149248 87449 -95 -10855 -187304
832428634860362368 86474 -644 -11211 -187391
832428634878575616 85706 -1014 -11504 -187362
832428634896788736 85366 -1252 -11633 -187402
832428634915001856 85350 -1255 -11678 -187376
832428634933214976 85679 -1031 -11576 -187353
832428634951428096 86110 -841 -11359 -187325
832428634969641344 86572 -604 -11192 -187341
832428634987854464 86877 -373 -11105 -187323
832428635006067584 87130 -255 -11057 -187309
832428635024280704 87377 -124 -10873 -187323
832428635042493824 87657 -3 -10797 -187310
832428635060706944 88005 197 -10669 -187361
832428635078920192 88447 416 -10520 -187346
832428635097133312 89141 750 -10207 -187367
832428635115346432 89435 984 -10109 -187307
832428635133559552 89306 918 -10123 -187353
832428635151772672 88608 559 -10377 -187337
832428635169985792 87660 106 -10766 -187364
832428635188199040 86542 -543 -11204 -187418
832428635206412154 85842 -862 -11421 -187336
832428635224626048 85372 -1206 -11622 -187333
832428635242839936 85287 -1258 -11661 -187370
832428635261053696 85566 -1099 -11544 -187400
832428635279267584 86050 -841 -11387 -187383
832428635297481472 86527 -551 -11208 -187370
832428635315695232 87006 -387 -10980 -187349
832428635333909120 87202 -254 -10946 -187378
832428635352123008 87351 -143 -10888 -187394
832428635370336768 87470 -110 -10850 -187357
832428635388550656 87818 31 -10765 -187409
832428635406764544 88286 298 -10610 -187402
832428635424978304 88794 593 -10400 -187393
832428635443192192 89357 902 -10189 -187329
832428635461405952 89383 901 -10141 -187393
832428635479619840 88939 684 -10313 -187419
832428635497833728 88134 266 -10615 -187374
832428635516047488 87075 -221 -10964 -187379
832428635534261376 86148 -773 -11310 -187384
832428635552475264 85583 -1028 -11552 -187325
832428635570689024 85252 -1301 -11744 -187404
832428635588902912 85386 -1170 -11666 -187358
832428635607116800 85809 -972 -11498 -187310
832428635625330560 86298 -705 -11321 -187366
832428635643544448 86787 -418 -11129 -187359
832428635661758336 87115 -235 -10972 -187339
832428635679972096 87398 -103 -10927 -187363
832428635698185984 87587 19 -10868 -187347
832428635716399872 87838 151 -10706 -187351
832428635734613632 88164 352 -10639 -187396
832428635752827520 88623 592 -10384 -187367
832428635771041408 89090 779 -10189 -187395
832428635789255168 89302 864 -10141 -187421
832428635807469056 88960 689 -10269 -187391
832428635825682816 88259 364 -10567 -187395
832428635843896704 87297 -187 -10946 -187389
832428635862110592 86359 -715 -11276 -187398
832428635880324358 85709 -1003 -11539 -187361
832428635898538112 85361 -1245 -11646 -187388
832428635916751872 85414 -1173 -11642 -187376
832428635934965760 85696 -1022 -11579 -187386
832428635953179520 86080 -784 -11412 -187367
832428635971393280 86460 -611 -11274 -187375
832428635989607040 86868 -376 -11067 -187377
832428636007820928 87162 -227 -10974 -187388
832428636026034688 87402 -177 -10865 -187379
832428636044248448 87650 64 -10769 -187406
832428636062462336 88020 240 -10661 -187405
832428636080676096 88605 551 -10396 -187358
832428636098889856 89199 927 -10181 -187343
832428636117103616 89431 962 -10114 -187385
832428636135317504 89215 864 -10175 -187384
832428636153531264 88420 488 -10472 -187336
832428636171745024 87532 -119 -10806 -187352
832428636189958912 86575 -594 -11209 -187355
832428636208172672 85807 -969 -11420 -187333
832428636226386432 85388 -1178 -11610 -187377
832428636244600192 85386 -1165 -11623 -187311
832428636262814080 85631 -1131 -11590 -187362
832428636281027840 86088 -759 -11345 -187364
832428636299241600 86585 -493 -11145 -187369
832428636317455488 86947 -368 -11105 -187436
832428636335669248 87153 -233 -10983 -187394
832428636353883008 87218 -242 -10962 -187417
832428636372096768 87496 -67 -10843 -187362
832428636390310656 87781 136 -10684 -187461
832428636408524416 88329 356 -10538 -187388
832428636426738176 88912 611 -10310 -187418
832428636444952064 89460 936 -10099 -187359
832428636463165824 89351 887 -10109 -187373
832428636481379584 88829 611 -10306 -187390
832428636499593344 87970 164 -10621 -187353
832428636517807232 86941 -346 -11001 -187357
832428636536020736 86016 -858 -11375 -187417
832428636554234240 85423 -1210 -11612 -187403
832428636572447744 85285 -1258 -11680 -187389
832428636590661248 85434 -1160 -11648 -187364
832428636608874752 85883 -931 -11479 -187329
832428636627088128 86394 -656 -11275 -187355
832428636645301632 86852 -435 -11127 -187323
832428636663515136 87208 -176 -10934 -187369
832428636681728640 87479 -134 -10874 -187319
832428636699942144 87572 -43 -10843 -187359
832428636718155648 87760 137 -10756 -187440
832428636736369152 88154 322 -10561 -187306
832428636754582656 88679 515 -10407 -187377
832428636772796160 89125 814 -10258 -187356
832428636791009664 89339 866 -10126 -187332
832428636809223168 88954 712 -10287 -187319
832428636827436544 88231 423 -10513 -187295
832428636845650048 87194 -236 -10867 -187396
832428636863863552 86323 -618 -11199 -187354
832428636882077056 85724 -939 -11445 -187342
832428636900290560 85333 -1160 -11618 -187361
832428636918504064 85387 -1176 -11630 -187336
832428636936717568 85651 -1050 -11533 -187362
832428636954931072 86132 -799 -11354 -187413
832428636973144576 86618 -524 -11138 -187353
832428636991357952 86926 -339 -11056 -187363
832428637009571456 87277 -208 -10965 -187311
832428637027784960 87476 -76 -10910 -187373
832428637045998464 87742 70 -10788 -187368
832428637064211968 88156 317 -10634 -187376
832428637082425472 88680 604 -10422 -187369
832428637100638976 89236 872 -10157 -187385
832428637118852480 89375 889 -10107 -187291
832428637137065984 89156 786 -10212 -187284
832428637155279424 88430 444 -10473 -187364
832428637173492480 87454 -71 -10852 -187401
832428637191705600 86479 -641 -11236 -187406
832428637209918720 85864 -986 -11446 -187345
832428637228131968 85406 -1198 -11619 -187363
832428637246345088 85418 -1194 -11601 -187343
832428637264558208 85777 -1035 -11504 -187352
832428637282771328 86122 -808 -11395 -187345
832428637300984448 86516 -612 -11230 -187327
832428637319197568 86909 -375 -11013 -187319
832428637337410816 87043 -214 -10989 -187349
832428637355623936 87265 -108 -10901 -187304
832428637373837056 87548 -52 -10846 -187360
832428637392050176 87921 162 -10682 -187379
832428637410263296 88418 381 -10527 -187354
832428637428476416 89036 690 -10280 -187408
832428637446689664 89517 977 -10093 -187381
832428637464902784 89425 902 -10105 -187354
832428637483115904 88844 656 -10295 -187340
832428637501329024 87837 80 -10722 -187362
832428637519542144 86776 -495 -11084 -187386
832428637537755392 85845 -916 -11464 -187352
832428637555968512 85406 -1167 -11632 -187398
832428637574181632 85276 -1216 -11660 -187361
832428637592394752 85491 -1133 -11640 -187429
832428637610607872 85958 -858 -11464 -187346
832428637628820992 86473 -641 -11238 -187349
832428637647034240 86992 -324 -11043 -187349
832428637665247360 87289 -214 -10916 -187373
832428637683460480 87392 -165 -10881 -187341
832428637701673600 87535 -82 -10847 -187375
832428637719886720 87753 45 -10696 -187340
832428637738099840 88094 218 -10621 -187381
832428637756313088 88745 622 -10377 -187383
832428637774526208 89242 849 -10199 -187370
832428637792739410 89323 884 -10125 -187406
832428637810953344 88960 683 -10223 -187322
832428637829167232 88226 318 -10465 -187352
832428637847381120 87274 -253 -10913 -187324
832428637865595008 86314 -723 -11300 -187361
832428637883808896 85611 -1091 -11531 -187370
832428637902022784 85252 -1253 -11696 -187367
832428637920236672 85329 -1253 -11675 -187371
832428637938450560 85693 -1092 -11532 -187395
832428637956664448 86255 -747 -11296 -187303
832428637974878336 86715 -558 -11170 -187373
832428637993092224 87052 -358 -10985 -187360
832428638011306112 87277 -250 -10906 -187350
832428638029520000 87476 -96 -10825 -187338
832428638047733888 87780 136 -10694 -187325
832428638065947648 88162 258 -10618 -187369
832428638084161536 88666 577 -10374 -187287
832428638102375424 89203 860 -10144 -187366
832428638120589312 89216 870 -10173 -187358
832428638138803200 89016 756 -10277 -187392
832428638157017088 88327 367 -10554 -187396
832428638175230976 87348 -94 -10931 -187387
832428638193444864 86445 -537 -11220 -187362
832428638211658752 85722 -898 -11466 -187296
832428638229872640 85380 -1136 -11651 -187402
832428638248086528 85434 -1099 -11626 -187429
832428638266300416 85693 -959 -11546 -187412
832428638284514304 86162 -643 -11306 -187404
832428638302728192 86598 -556 -11191 -187341
832428638320942080 86902 -418 -11057 -187319
832428638339155968 87152 -207 -10966 -187330
832428638357369856 87369 -129 -10901 -187336
832428638375583744 87646 13 -10791 -187309
832428638393797632 88010 188 -10692 -187305
832428638412011520 88470 437 -10469 -187379
832428638430225330 89168 808 -10175 -187282
832428638448439424 89517 1011 -10050 -187367
832428638466653568 89356 961 -10091 -187315
832428638484867712 88688 585 -10308 -187350
832428638503081856 87656 31 -10779 -187405
832428638521296000 86569 -549 -11172 -187397
832428638539510144 85834 -1014 -11472 -187341
832428638557724288 85364 -1218 -11670 -187378
832428638575938432 85288 -1236 -11700 -187342
832428638594152576 85509 -1082 -11575 -187404
832428638612366720 86019 -891 -11375 -187293
832428638630580864 86656 -522 -11181 -187310
832428638648795008 87062 -334 -11020 -187353
832428638667009152 87254 -176 -10963 -187375
832428638685223296 87398 -96 -10867 -187328
832428638703437440 87560 13 -10821 -187281
832428638721651584 87809 63 -10765 -187350
832428638739865728 88236 314 -10531 -187361
832428638758079872 88842 643 -10275 -187349
832428638776294016 89377 935 -10117 -187352
832428638794508160 89376 949 -10141 -187364
832428638812722304 88940 667 -10308 -187350
832428638830936448 88172 295 -10615 -187336
832428638849150592 87106 -213 -10985 -187312
832428638867364736 86289 -696 -11358 -187373
832428638885578880 85551 -1148 -11598 -187404
832428638903793024 85213 -1319 -11738 -187428
832428638922007168 85271 -1239 -11713 -187393
832428638940221312 85752 -1009 -11609 -187380
832428638958435456 86324 -653 -11338 -187385
832428638976649600 86764 -491 -11157 -187376
832428638994863744 87066 -337 -10977 -187390
832428639013077888 87329 -157 -10909 -187415
832428639031292032 87573 -78 -10814 -187379
832428639049506176 87817 97 -10693 -187353
832428639067720410 88152 318 -10627 -187381
832428639085934464 88646 504 -10421 -187361
832428639104148480 89098 809 -10177 -187395
832428639122362496 89333 919 -10160 -187386
832428639140576384 89016 755 -10266 -187379
832428639158790400 88285 369 -10517 -187438
832428639177004416 87406 -74 -10849 -187388
832428639195218432 86407 -592 -11232 -187374
832428639213432448 85794 -979 -11493 -187384
832428639231646336 85476 -1103 -11619 -187363
832428639249860352 85544 -1107 -11626 -187339
832428639268074368 85751 -941 -11499 -187339
832428639286288384 86106 -763 -11415 -187343
832428639304502400 86537 -579 -11251 -187327
832428639322716288 86937 -361 -11101 -187303
832428639340930304 87210 -233 -10971 -187329
832428639359144320 87368 -217 -10919 -187362
832428639377358336 87652 -65 -10832 -187359
832428639395572352 88032 253 -10616 -187328
832428639413786240 88618 538 -10396 -187341
832428639432000256 89223 885 -10139 -187367
832428639450214272 89449 1031 -10074 -187336
832428639468428288 89223 884 -10122 -187366
832428639486642304 88505 543 -10409 -187363
832428639504856192 87502 -30 -10790 -187380
832428639523070208 86638 -461 -11156 -187357
832428639541284224 85865 -901 -11497 -187357
832428639559498240 85445 -1180 -11646 -187295
832428639577712256 85299 -1187 -11677 -187353
832428639595926144 85644 -1029 -11574 -187360
832428639614140160 86119 -764 -11434 -187427
832428639632354176 86717 -489 -11173 -187335
832428639650568192 87050 -325 -11014 -187368
