TIMESTAMP PPG0 PPG1 PPG2 AMBIENT
832429370285343360 429317 363221 344551 180927
832429370303525120 429350 363201 344528 180919
832429370321707008 429311 363260 344464 180888
832429370339888768 429348 363239 344492 180883
832429370358070656 429354 363297 344551 180887
832429370376252416 429348 363279 344549 180932
832429370394434304 429351 363209 344528 180855
832429370412616064 429309 363246 344495 180944
832429370430797952 429292 363193 344515 180951
832429370448979712 429269 363171 344458 180919
832429370467161600 429264 363213 344418 180961
832429370485343360 429293 363176 344440 180890
832429370503525120 429332 363204 344469 180904
832429370521707008 429347 363244 344497 180896
832429370539888768 429328 363234 344458 180923
832429370558070656 429399 363262 344520 180893
832429370576252416 429328 363211 344485 180884
832429370594434304 429384 363284 344548 180853
832429370612616064 429298 363188 344511 180847
832429370630797952 429227 363214 344478 180869
832429370648979712 429276 363171 344476 180911
832429370667161600 429331 363223 344493 180907
832429370685343360 429315 363264 344445 180885
832429370703525120 429270 363219 344454 180882
832429370721707008 429296 363300 344547 180932
832429370739888768 429373 363212 344514 180978
832429370758070656 429422 363197 344535 180923
832429370776252416 429450 363273 344581 180952
832429370794434304 429381 363325 344494 180900
832429370812616064 429356 363268 344531 180896
832429370830797952 429211 363171 344476 180845
832429370848979712 429212 363237 344540 180932
832429370867161600 429314 363205 344523 180884
832429370885343360 429375 363237 344512 180837
832429370903525120 429326 363230 344461 180916
832429370921707008 429333 363268 344534 180864
832429370939888768 429408 363303 344502 180889
832429370958070656 429401 363294 344515 180902
832429370976252416 429375 363266 344537 180891
832429370994434304 429333 363241 344467 180871
832429371012616064 429270 363160 344529 180939
832429371030797952 429241 363132 344471 180902
832429371048979712 429310 363178 344463 180894
832429371067161600 429280 363248 344509 180882
832429371085343360 429311 363192 344526 180872
832429371103525120 429309 363226 344543 180851
832429371121707008 429346 363194 344504 180899
832429371139888778 429406 363279 344557 180918
832429371158102784 429413 363262 344547 180930
832429371176316800 429391 363229 344547 180840
832429371194530816 429323 363237 344552 180915
832429371212744704 429213 363152 344437 180915
832429371230958720 429164 363197 344459 180942
832429371249172736 429227 363175 344483 180892
832429371267386752 429386 363222 344488 180941
832429371285600768 429347 363229 344484 180875
832429371303814656 429366 363258 344497 180892
832429371322028672 429394 363249 344575 181017
832429371340242688 429379 363288 344493 180886
832429371358456704 429385 363298 344535 180941
832429371376670720 429315 363271 344486 180885
832429371394884608 429254 363206 344512 180889
832429371413098624 429235 363159 344505 180902
832429371431312640 429225 363146 344460 180902
832429371449526656 429267 363204 344543 180930
832429371467740672 429255 363227 344504 180886
832429371485954560 429317 363270 344492 180894
832429371504168576 429384 363262 344491 180886
832429371522382592 429473 363247 344554 180911
832429371540596608 429384 363223 344534 180845
832429371558810624 429286 363224 344527 180843
832429371577024512 429391 363236 344508 180920
832429371595238528 429360 363232 344533 180933
832429371613452544 429202 363163 344449 180931
832429371631666560 429259 363170 344477 180925
832429371649880576 429294 363189 344480 180938
832429371668094464 429306 363201 344457 180849
832429371686308480 429417 363222 344513 180894
832429371704522496 429345 363176 344477 180927
832429371722736512 429424 363269 344597 180976
832429371740950528 429420 363300 344601 180910
832429371759164416 429322 363253 344526 180899
832429371777378432 429269 363236 344531 180893
832429371795592448 429264 363255 344504 180898
832429371813806464 429194 363160 344408 180859
832429371832020480 429271 363207 344502 180892
832429371850234368 429285 363194 344432 180905
832429371868448384 429401 363262 344526 180937
832429371886662400 429415 363270 344484 180909
832429371904876416 429437 363311 344546 180924
832429371923090304 429378 363263 344551 180872
832429371941304320 429434 363281 344545 180937
832429371959518332 429353 363313 344609 180899
832429371977732352 429338 363268 344541 180880
832429371995946368 429269 363257 344484 180880
832429372014160512 429250 363184 344491 180915
832429372032374528 429329 363234 344436 180846
832429372050588672 429315 363272 344477 180886
832429372068802688 429343 363282 344514 180899
832429372087016832 429268 363230 344512 180882
832429372105230848 429408 363281 344521 180909
832429372123444992 429421 363290 344535 180930
832429372141659008 429377 363314 344516 180936
832429372159873152 429251 363212 344492 180902
832429372178087168 429297 363241 344520 180947
832429372196301312 429224 363217 344469 180900
832429372214515328 429281 363173 344469 180924
832429372232729472 429231 363132 344480 180883
832429372250943488 429318 363196 344504 180940
832429372269157632 429349 363217 344481 180944
832429372287371648 429392 363254 344534 180918
832429372305585792 429480 363240 344587 180962
832429372323799808 429471 363292 344523 180932
832429372342013952 429400 363311 344503 180931
832429372360227968 429306 363229 344513 180913
832429372378442112 429272 363222 344504 180937
832429372396656128 429220 363195 344523 180852
832429372414870272 429239 363224 344487 180894
832429372433084288 429282 363217 344470 180876
832429372451298432 429273 363187 344458 180840
832429372469512448 429314 363201 344458 180884
832429372487726592 429349 363266 344495 180947
832429372505940608 429400 363290 344511 180937
832429372524154752 429426 363213 344544 180899
832429372542368768 429401 363270 344552 180884
832429372560582912 429364 363185 344511 180930
832429372578796928 429239 363231 344481 180958
832429372597011072 429176 363127 344399 180880
832429372615225088 429253 363195 344429 180860
832429372633439232 429244 363160 344406 180903
832429372651653248 429429 363185 344459 180913
832429372669867392 429423 363260 344550 180909
832429372688081408 429339 363266 344528 180908
832429372706295552 429332 363263 344502 180910
832429372724509568 429363 363239 344425 180898
832429372742723712 429475 363277 344532 180870
832429372760937794 429353 363234 344452 180889
832429372779150976 429280 363166 344411 180845
832429372797364096 429430 363218 344548 180853
832429372815577216 429826 363499 344708 180884
832429372833790464 430062 363674 344769 180903
832429372852003584 430276 363730 344872 180866
832429372870216704 430558 363906 344953 180909
832429372888429824 430932 364036 345035 180906
832429372906642944 431416 364313 345272 180924
832429372924856064 431785 364618 345400 180879
832429372943069312 432097 364710 345503 180897
832429372961282432 431929 364610 345416 180881
832429372979495552 431218 364320 345201 180902
832429372997708672 430333 363767 344850 180940
832429373015921792 429495 363280 344540 180886
832429373034134912 428924 362958 344355 180926
832429373052348160 428724 362847 344278 180888
832429373070561280 428971 362992 344384 180953
832429373088774400 429331 363199 344500 180892
832429373106987520 429852 363502 344714 180900
832429373125200640 430208 363712 344856 180926
832429373143413888 430301 363794 344861 180903
832429373161627008 430472 363914 344937 180874
832429373179840128 430786 364007 345023 180894
832429373198053248 431289 364288 345123 180897
832429373216266368 431957 364667 345409 180944
832429373234479488 432136 364783 345484 180893
832429373252692736 431822 364593 345401 180922
832429373270905856 431021 364125 345074 180901
832429373289118976 430050 363621 344750 180877
832429373307332096 429348 363202 344482 180924
832429373325545216 428841 362955 344292 180879
832429373343758336 428839 362960 344344 180910
832429373361971584 429006 363061 344374 180928
832429373380184704 429286 363221 344539 180898
832429373398397780 429766 363510 344697 180887
832429373416611328 430188 363714 344825 180918
832429373434824832 430369 363798 344905 180953
832429373453038208 430761 363941 345068 180989
832429373471251712 431211 364229 345199 180916
832429373489465088 431740 364532 345350 180911
832429373507678592 432250 364802 345510 180920
832429373525891968 432228 364789 345522 180877
832429373544105472 431706 364496 345335 180886
832429373562318848 430712 363982 344998 180898
832429373580532352 429664 363364 344599 180899
832429373598745856 429048 363051 344429 180909
832429373616959232 428750 362898 344254 180883
832429373635172736 428839 362944 344342 180872
832429373653386112 429197 363168 344415 180855
832429373671599616 429669 363358 344582 180872
832429373689812992 430099 363627 344811 180900
832429373708026496 430323 363750 344860 180871
832429373726240000 430471 363852 344913 180871
832429373744453376 430692 363915 344994 180917
832429373762666880 431133 364203 345158 180911
832429373780880256 431750 364492 345345 180955
832429373799093760 432176 364777 345519 180875
832429373817307136 432029 364671 345443 180919
832429373835520640 431382 364329 345226 180881
832429373853734016 430457 363810 344894 180901
832429373871947520 429516 363306 344583 180916
832429373890161024 428993 363047 344389 180902
832429373908374400 428774 363007 344313 180919
832429373926587904 428969 363064 344370 180909
832429373944801280 429317 363211 344502 180886
832429373963014784 429642 363418 344605 180864
832429373981228160 429978 363604 344750 180880
832429373999441664 430278 363776 344863 180926
832429374017655040 430548 363855 344865 180843
832429374035868448 430915 364154 345037 180882
832429374054081280 431405 364350 345202 180927
832429374072294144 432048 364703 345430 180898
832429374090507008 432351 364774 345532 180922
832429374108719744 431968 364634 345451 180918
832429374126932608 431158 364229 345141 180833
832429374145145472 430152 363655 344806 180890
832429374163358336 429233 363205 344453 180896
832429374181571200 428774 362878 344245 180904
832429374199783936 428700 362948 344316 180856
832429374217996800 428963 363097 344401 180868
832429374236209664 429446 363211 344508 180891
832429374254422528 429891 363522 344704 180899
832429374272635264 430303 363772 344796 180915
832429374290848128 430456 363869 344903 180903
832429374309060992 430651 363983 344977 180888
832429374327273856 430967 364195 345133 180882
832429374345486720 431510 364397 345262 180898
832429374363699456 431870 364580 345370 180889
832429374381912320 432084 364734 345493 180850
832429374400125184 431727 364513 345353 180858
832429374418338048 430832 364022 344987 180884
832429374436550912 429852 363503 344634 180910
832429374454763648 429166 363117 344493 180932
832429374472976512 428901 362956 344379 180970
832429374491189376 428988 362942 344339 180928
832429374509402240 429280 363156 344451 180911
832429374527615104 429637 363351 344585 180920
832429374545827840 429910 363505 344690 180907
832429374564040704 430145 363625 344785 180842
832429374582253568 430449 363802 344882 180887
832429374600466432 430711 363977 344971 180879
832429374618679296 431250 364237 345169 180847
832429374636892032 431790 364477 345315 180886
832429374655104896 432213 364742 345422 180900
832429374673317752 432186 364805 345532 180918
832429374691530880 431620 364476 345281 180932
832429374709744000 430582 363919 344952 180903
832429374727957120 429594 363376 344555 180870
832429374746170368 428835 362977 344338 180887
832429374764383488 428701 362811 344216 180917
832429374782596608 428885 363004 344312 180915
832429374800809728 429287 363214 344512 180933
832429374819022848 429778 363439 344653 180916
832429374837235968 430119 363671 344750 180924
832429374855449216 430319 363695 344793 180922
832429374873662336 430597 363895 344905 180922
832429374891875456 431003 364107 345100 180900
832429374910088576 431450 364375 345282 180886
832429374928301696 431906 364608 345409 180841
832429374946514816 432170 364796 345529 180866
832429374964728064 431886 364616 345413 180859
832429374982941184 431203 364225 345141 180903
832429375001154304 430252 363691 344854 180897
832429375019367424 429380 363265 344535 180854
832429375037580544 428922 362993 344352 180922
832429375055793664 428867 362943 344330 180882
832429375074006912 429152 363126 344474 180899
832429375092220032 429526 363297 344602 180982
832429375110433152 429898 363499 344721 180977
832429375128646272 430175 363690 344771 180966
832429375146859392 430251 363766 344813 180907
832429375165072640 430546 363923 344902 180891
832429375183285760 430919 364130 345116 180856
832429375201498880 431479 364403 345298 180882
832429375219712000 432027 364688 345482 180886
832429375237925120 432121 364767 345521 180905
832429375256138240 431772 364547 345327 180891
832429375274351488 430999 364134 345115 180894
832429375292564608 430033 363615 344754 180864
832429375310777730 429135 363165 344415 180833
832429375328990208 428657 362898 344291 180923
832429375347202688 428594 362795 344244 180876
832429375365415040 429113 363017 344376 180926
832429375383627520 429614 363352 344558 180938
832429375401840000 430003 363552 344721 180874
832429375420052480 430272 363680 344811 180883
832429375438264832 430428 363817 344880 180947
832429375456477312 430740 363965 344965 180924
832429375474689792 431169 364176 345060 180875
832429375492902272 431688 364520 345277 180871
832429375511114624 432099 364699 345478 180879
832429375529327104 431985 364714 345509 180919
832429375547539584 431319 364322 345216 180859
832429375565751936 430529 363899 344988 180882
832429375583964416 429703 363356 344656 180901
832429375602176896 429011 363045 344409 180917
832429375620389376 428722 362872 344293 180879
832429375638601728 428920 362929 344365 180932
832429375656814208 429336 363198 344452 180911
832429375675026688 429761 363476 344652 180911
832429375693239168 430163 363681 344736 180928
832429375711451520 430353 363790 344846 180935
832429375729664000 430354 363821 344935 180911
832429375747876480 430728 364030 345020 180954
832429375766088832 431267 364290 345213 180967
832429375784301312 431899 364645 345423 180918
832429375802513792 432181 364781 345521 180932
832429375820726272 431929 364643 345433 180892
832429375838938624 431296 364238 345141 180899
832429375857151104 430307 363812 344856 180925
832429375875363584 429444 363320 344560 180859
832429375893576064 428871 363012 344323 180919
832429375911788416 428734 362898 344322 180971
832429375930000896 428870 362977 344330 180853
832429375948213304 429356 363249 344539 180914
832429375966426752 429831 363524 344739 180907
832429375984640256 430149 363715 344782 180938
832429376002853760 430385 363768 344861 180905
832429376021067392 430659 363949 344986 180892
832429376039280896 431099 364204 345119 180886
832429376057494400 431596 364494 345387 180909
832429376075707904 432125 364773 345492 180936
832429376093921536 432244 364783 345511 180924
832429376112135040 431717 364570 345351 180885
832429376130348544 430845 364067 345046 180941
832429376148562048 429847 363575 344687 180934
832429376166775680 429135 363161 344474 180920
832429376184989184 428749 362906 344316 180947
832429376203202688 428786 362968 344268 180876
832429376221416192 429021 363101 344398 180864
832429376239629824 429601 363322 344611 180930
832429376257843328 429954 363551 344718 180937
832429376276056832 430288 363688 344819 180875
832429376294270336 430444 363904 344919 180928
832429376312483968 430643 363980 344988 180930
832429376330697472 431081 364159 345042 180913
832429376348910976 431605 364434 345290 180926
832429376367124480 432118 364741 345447 180883
832429376385338112 432117 364714 345507 180894
832429376403551616 431587 364420 345253 180939
832429376421765120 430751 363924 345012 180933
832429376439978624 429743 363436 344694 180910
832429376458192128 429068 363109 344413 180880
832429376476405760 428742 362896 344300 180901
832429376494619264 428853 362948 344328 180891
832429376512832768 429143 363166 344418 180892
832429376531046272 429587 363395 344568 180882
832429376549259904 429990 363585 344692 180848
832429376567473408 430302 363697 344811 180885
832429376585687020 430602 363833 344944 180917
832429376603899648 430864 364032 345025 180903
832429376622112256 431341 364253 345175 180902
832429376640324736 431930 364635 345407 180922
832429376658537344 432242 364772 345504 180882
832429376676749952 432007 364660 345491 180885
832429376694962560 431262 364308 345183 180881
832429376713175040 430187 363684 344806 180896
832429376731387648 429348 363246 344572 180888
832429376749600256 428818 362998 344357 180935
832429376767812864 428670 362951 344344 180905
832429376786025344 428972 363042 344374 180917
832429376804237952 429370 363254 344497 180913
832429376822450560 429818 363463 344655 180892
832429376840663168 430198 363695 344859 180877
832429376858875648 430435 363826 344923 180884
832429376877088256 430575 363929 344935 180883
832429376895300864 430896 364035 345004 180894
832429376913513472 431246 364235 345158 180865
832429376931725952 431937 364609 345411 180857
832429376949938560 432179 364797 345539 180927
832429376968151168 431828 364615 345385 180896
832429376986363776 431023 364117 345095 180903
832429377004576256 430007 363604 344773 180892
832429377022788864 429387 363237 344569 180927
832429377041001472 428859 362980 344309 180898
832429377059214080 428819 362913 344265 180883
832429377077426560 429051 363093 344432 180917
832429377095639168 429467 363228 344477 180899
832429377113851776 429725 363432 344643 180898
832429377132064384 430075 363618 344783 180902
832429377150276864 430369 363812 344914 180903
832429377168489472 430685 363934 344946 180904
832429377186702080 431143 364228 345124 180975
832429377204914688 431635 364464 345268 180866
832429377223127170 432272 364840 345558 180924
832429377241341056 432198 364801 345507 180864
832429377259554944 431624 364518 345304 180889
832429377277768832 430672 363968 344944 180865
832429377295982720 429668 363364 344592 180913
832429377314196608 428922 363017 344425 180923
832429377332410496 428618 362886 344277 180949
832429377350624384 428775 362947 344342 180892
832429377368838272 429177 363145 344548 180943
832429377387052160 429719 363401 344715 180910
832429377405266048 429995 363591 344778 180952
832429377423479936 430299 363763 344845 180889
832429377441693824 430501 363823 344925 180874
832429377459907712 430785 363998 345067 180896
832429377478121600 431199 364230 345189 180877
832429377496335360 431694 364456 345342 180918
832429377514549248 432051 364642 345383 180885
832429377532763136 431892 364621 345397 180889
832429377550977024 431305 364327 345152 180889
832429377569190912 430361 363827 344854 180860
832429377587404800 429553 363345 344547 180888
832429377605618688 428942 363013 344324 180873
832429377623832576 428783 362910 344260 180886
832429377642046464 429058 363040 344359 180920
832429377660260352 429411 363244 344545 180897
832429377678474240 429761 363462 344591 180879
832429377696688128 430056 363622 344686 180891
832429377714902016 430250 363740 344813 180904
832429377733115904 430552 363858 344903 180919
832429377751329792 430981 364076 345068 180882
832429377769543680 431453 364323 345238 180867
832429377787757568 432026 364618 345376 180868
832429377805971456 432202 364754 345505 180866
832429377824185344 431969 364636 345418 180860
832429377842399232 431182 364082 345068 180888
832429377860613090 430158 363658 344776 180960
832429377878826880 429277 363147 344466 180939
832429377897040640 428673 362865 344263 180920
832429377915254528 428615 362865 344274 180893
832429377933468288 428935 363009 344391 180909
832429377951682048 429407 363254 344534 180884
832429377969895808 429845 363507 344714 180855
832429377988109696 430145 363593 344767 180891
832429378006323456 430396 363821 344878 180919
832429378024537216 430611 363953 344975 180951
832429378042751104 431039 364206 345154 180911
832429378060964864 431554 364459 345306 180866
832429378079178624 432083 364707 345498 180858
832429378097392384 432104 364681 345425 180883
832429378115606272 431556 364423 345322 180949
832429378133820032 430743 364028 345016 180916
832429378152033792 429834 363451 344647 180840
832429378170247680 429140 363126 344434 180877
832429378188461440 428546 362791 344126 180932
832429378206675200 428860 362906 344245 180935
832429378224888960 429229 363128 344409 180979
832429378243102848 429515 363338 344496 180907
832429378261316608 429878 363562 344669 180931
832429378279530368 430109 363646 344757 180921
832429378297744256 430387 363743 344842 181003
832429378315958016 430666 364001 344996 180927
832429378334171776 431096 364240 345108 180901
832429378352385536 431760 364526 345367 180925
832429378370599424 432146 364788 345468 180968
832429378388813184 431985 364637 345406 180967
832429378407026944 431402 364312 345169 180940
832429378425240832 430463 363829 344856 180913
832429378443454592 429532 363273 344527 180915
832429378461668352 428815 362911 344281 180944
832429378479882112 428568 362773 344236 180877
832429378498095964 428808 362915 344287 180853
832429378516309504 429200 363115 344475 180837
832429378534523008 429694 363363 344556 180903
832429378552736512 430069 363644 344713 180886
832429378570950016 430269 363742 344806 180915
832429378589163520 430585 363869 344947 180910
832429378607376896 430933 364039 345063 180922
832429378625590400 431313 364286 345212 180888
832429378643803904 431911 364612 345411 180918
832429378662017408 432103 364698 345495 180942
832429378680230912 431729 364478 345330 180905
832429378698444416 431016 364130 345015 180914
832429378716657920 430034 363564 344744 180881
832429378734871424 429224 363178 344451 180881
832429378753084928 428770 362898 344292 180899
832429378771298432 428625 362843 344262 180898
832429378789511936 428978 362990 344356 180890
832429378807725312 429454 363253 344550 180926
832429378825938816 429889 363541 344684 180921
832429378844152320 430191 363668 344768 180935
832429378862365824 430317 363814 344835 180935
832429378880579328 430487 363859 344863 180928
832429378898792832 430974 364115 345083 180947
832429378917006336 431537 364415 345273 180904
832429378935219840 432026 364700 345485 180935
832429378953433344 432142 364731 345545 180923
832429378971646720 431723 364495 345318 180924
832429378989860224 430864 364106 345057 180928
832429379008073728 429914 363499 344728 180930
832429379026287232 429107 363068 344413 180900
832429379044500736 428699 362811 344246 180916
832429379062714240 428730 362855 344265 180901
832429379080927744 429057 363061 344407 180902
832429379099141248 429535 363365 344594 180918
832429379117354752 429894 363553 344670 180940
832429379135568156 430241 363725 344847 180905
832429379153781376 430421 363802 344897 180915
832429379171994624 430713 363965 344964 180921
832429379190207872 431217 364235 345123 180894
832429379208421120 431781 364555 345379 180908
832429379226634240 432117 364766 345512 180834
832429379244847488 432006 364683 345481 180865
832429379263060736 431378 364361 345228 180926
832429379281273984 430404 363798 344902 180874
832429379299487232 429505 363294 344586 180889
832429379317700480 428867 362994 344328 180914
832429379335913728 428687 362822 344267 180902
832429379354126848 428920 363018 344362 180918
832429379372340096 429383 363175 344503 180885
832429379390553344 429795 363446 344655 180886
832429379408766592 430142 363644 344807 180875
832429379426979840 430276 363726 344855 180938
832429379445193088 430500 363798 344914 180932
832429379463406336 430733 364040 345040 180957
832429379481619456 431234 364280 345170 180909
832429379499832704 431875 364654 345428 180916
832429379518045952 432137 364821 345533 180910
832429379536259200 431910 364588 345448 180872
832429379554472448 431205 364176 345146 180864
832429379572685696 430314 363711 344807 180936
832429379590898944 429453 363211 344538 180889
832429379609112064 428910 362956 344344 180913
832429379627325312 428765 362859 344245 180949
832429379645538560 428909 363008 344315 180926
832429379663751808 429256 363196 344427 180902
832429379681965056 429773 363423 344597 180922
832429379700178304 430138 363657 344777 180889
832429379718391552 430328 363769 344898 180938
832429379736604672 430641 363938 344955 180996
832429379754817920 431013 364150 345099 180960
832429379773031194 431574 364386 345281 180920
832429379791242880 432161 364756 345496 180901
832429379809454592 432234 364835 345569 180940
832429379827666304 431649 364511 345341 180879
832429379845878016 430847 364034 345055 180923
832429379864089728 429886 363493 344710 180921
832429379882301440 429094 363068 344413 180922
832429379900513152 428687 362849 344270 180937
832429379918724864 428736 362840 344283 180890
832429379936936448 429051 363099 344383 180945
832429379955148160 429458 363353 344545 180900
832429379973359872 430026 363586 344727 180936
832429379991571584 430329 363709 344889 180888
832429380009783296 430456 363783 344961 180862
832429380027995008 430661 363888 344938 180917
832429380046206720 430979 364120 345078 180894
832429380064418432 431614 364406 345380 180926
832429380082630144 432056 364716 345471 180829
832429380100841856 432062 364712 345505 180894
832429380119053568 431463 364396 345304 180903
832429380137265280 430501 363892 344895 180869
832429380155476992 429707 363428 344676 180994
832429380173688704 429104 363110 344441 180939
832429380191900416 428799 362879 344257 180914
832429380210112000 428925 362960 344328 180904
832429380228323712 429220 363154 344429 180955
832429380246535424 429640 363403 344659 180936
832429380264747136 430002 363528 344700 180917
832429380282958848 430291 363797 344842 180954
832429380301170560 430465 363879 344895 180864
832429380319382272 430830 364094 345013 180933
832429380337593984 431328 364315 345183 180908
832429380355805696 431977 364634 345460 180913
832429380374017408 432268 364862 345517 180938
832429380392229120 431956 364748 345415 180950
832429380410440812 431213 364199 345119 180920
832429380428655360 430202 363649 344807 180864
832429380446869888 429328 363180 344482 180918
832429380465084288 428746 362900 344333 180940
832429380483298816 428666 362902 344283 180924
832429380501513344 428961 362981 344358 180979
832429380519727872 429355 363206 344414 180899
832429380537942272 429809 363476 344664 180917
832429380556156800 430206 363735 344821 180909
832429380574371328 430499 363871 344944 180991
832429380592585856 430655 363977 344930 180865
832429380610800256 430950 364093 345079 180932
832429380629014784 431381 364330 345217 180901
832429380647229312 431913 364568 345453 180977
832429380665443840 432079 364702 345489 180962
832429380683658240 431811 364596 345368 180953
832429380701872768 430966 364090 345091 180972
832429380720087296 429989 363523 344684 180960
832429380738301696 429179 363115 344410 180905
832429380756516224 428803 362959 344287 180879
832429380774730752 428827 363015 344290 180842
832429380792945280 429127 363074 344434 180904
832429380811159680 429549 363300 344546 180960
832429380829374208 429823 363509 344635 180915
832429380847588736 430149 363657 344747 180889
832429380865803264 430344 363727 344841 180872
832429380884017664 430638 363879 344914 180884
832429380902232192 431079 364142 345116 180892
832429380920446720 431617 364440 345281 180898
832429380938661248 432065 364669 345442 180874
832429380956875648 432118 364741 345495 180916
832429380975090176 431570 364516 345306 180921
832429380993304704 430627 363941 344950 180924
832429381011519232 429593 363374 344651 180867
832429381029733632 428901 362953 344350 180865
832429381047948106 428644 362794 344235 180907
832429381066161024 428854 362958 344313 180943
832429381084373888 429171 363066 344474 180866
832429381102586752 429733 363393 344600 180851
832429381120799488 430031 363565 344777 180913
832429381139012352 430248 363694 344809 180874
832429381157225216 430549 363861 344926 180938
832429381175438080 430884 364108 345018 180916
832429381193650944 431291 364284 345197 180965
832429381211863680 431769 364561 345341 180961
832429381230076544 432071 364695 345444 180917
832429381248289408 431876 364582 345414 180894
832429381266502272 431223 364270 345160 180851
832429381284715008 430313 363778 344843 180965
832429381302927872 429432 363285 344537 180953
832429381321140736 428836 362958 344372 180985
832429381339353600 428791 362864 344327 180948
832429381357566464 429109 363073 344357 180910
832429381375779200 429420 363303 344488 180874
832429381393992064 429824 363500 344693 180899
832429381412204928 430130 363654 344786 180888
832429381430417792 430214 363696 344732 180869
832429381448630656 430512 363832 344853 180871
832429381466843392 431010 364070 345043 180904
832429381485056256 431400 364337 345266 180899
832429381503269120 431914 364558 345366 180857
832429381521481984 432083 364740 345483 180905
832429381539694848 431851 364551 345348 180906
832429381557907584 431027 364210 345176 180889
832429381576120448 430060 363582 344734 180914
832429381594333312 429207 363176 344485 180885
832429381612546176 428604 362818 344250 180826
832429381630759040 428619 362789 344242 180858
832429381648971776 428948 362985 344322 180877
832429381667184640 429477 363318 344538 180924
832429381685397410 429876 363584 344676 180880
832429381703609984 430201 363680 344802 180931
832429381721822592 430373 363812 344938 180924
832429381740035072 430706 363966 345014 180908
832429381758247680 431187 364196 345132 180950
832429381776460288 431681 364435 345345 180924
832429381794672896 432022 364695 345478 180886
832429381812885376 431927 364671 345424 180863
832429381831097984 431449 364455 345230 180927
832429381849310592 430576 363928 344940 180859
832429381867523200 429676 363365 344625 180879
832429381885735680 429116 363067 344345 180852
832429381903948288 428752 362874 344328 180943
832429381922160896 428893 362929 344361 180931
832429381940373504 429194 363166 344421 180927
832429381958585984 429712 363387 344641 180899
832429381976798592 430023 363649 344788 180934
832429381995011200 430153 363682 344808 180869
832429382013223808 430396 363832 344876 180918
832429382031436288 430733 364033 345010 180896
832429382049648896 431298 364264 345223 180892
832429382067861504 431905 364595 345450 180891
832429382086074112 432247 364766 345562 180921
832429382104286592 432030 364685 345474 180907
832429382122499200 431379 364344 345235 180916
832429382140711808 430448 363801 344850 180926
832429382158924416 429515 363358 344569 180939
832429382177136896 428866 362985 344338 180936
832429382195349504 428636 362859 344255 180959
832429382213562112 428767 362970 344329 180982
832429382231774720 429269 363180 344438 180876
832429382249987200 429811 363469 344681 180927
832429382268199808 430141 363633 344753 180914
832429382286412416 430308 363699 344835 180932
832429382304625024 430547 363876 344904 180898
832429382322837560 431004 364164 345066 180913
832429382341049856 431477 364393 345198 180840
832429382359262208 432042 364701 345458 180928
832429382377474688 432147 364772 345506 180904
832429382395687040 431735 364560 345297 180853
832429382413899520 430933 364169 345080 180905
832429382432111872 429982 363592 344727 180909
832429382450324224 429176 363160 344467 180906
832429382468536704 428715 362892 344254 180889
832429382486749056 428735 362891 344268 180903
832429382504961408 428991 363017 344349 180911
832429382523173888 429549 363306 344520 180901
832429382541386240 429961 363591 344654 180940
832429382559598720 430163 363715 344796 180911
832429382577811072 430311 363745 344808 180879
832429382596023424 430564 363967 344937 180928
832429382614235904 430917 364140 345102 180911
832429382632448256 431482 364449 345249 180956
832429382650660736 432067 364665 345444 180953
832429382668873088 432086 364718 345483 180936
832429382687085440 431617 364432 345284 180860
832429382705297920 430720 363989 344988 180922
832429382723510272 429864 363491 344686 180944
832429382741722624 429164 363132 344430 180905
832429382759935104 428787 362891 344295 180906
832429382778147456 428778 362910 344288 180891
832429382796359936 429016 363011 344353 180871
832429382814572288 429486 363250 344549 180937
832429382832784640 429874 363470 344667 180894
832429382850997120 430135 363615 344725 180892
832429382869209472 430380 363738 344860 180868
832429382887421824 430686 363924 344967 180887
832429382905634304 431180 364242 345153 180876
832429382923846656 431792 364614 345346 180885
832429382942059136 432190 364815 345589 180922
832429382960271596 431950 364671 345450 180931
832429382978483200 431313 364243 345214 180947
832429382996694784 430296 363748 344846 180934
832429383014906496 429354 363300 344533 180894
832429383033118080 428809 362912 344307 180845
832429383051329664 428725 362928 344279 180896
832429383069541248 428918 362929 344333 180887
832429383087752960 429343 363251 344520 180922
832429383105964544 429805 363428 344653 180933
832429383124176128 430096 363602 344726 180855
832429383142387712 430277 363765 344809 180876
832429383160599424 430510 363887 344867 180925
832429383178811008 430882 364058 344999 180889
832429383197022592 431232 364228 345158 180879
832429383215234176 431938 364552 345405 180951
832429383233445888 432126 364742 345516 180916
832429383251657472 431815 364575 345384 180908
832429383269869056 431095 364182 345133 180862
832429383288080640 430128 363643 344799 180837
832429383306292352 429341 363198 344509 180896
832429383324503936 428821 363004 344334 180883
832429383342715520 428712 362916 344270 180881
832429383360927104 428905 363010 344372 180873
832429383379138816 429289 363226 344467 180896
832429383397350400 429662 363428 344620 180937
832429383415561984 430038 363650 344795 180909
832429383433773568 430359 363736 344864 180939
832429383451985280 430637 363953 344954 180916
832429383470196864 430970 364155 345052 180906
832429383488408448 431477 364398 345226 180906
832429383506620032 432035 364733 345476 180890
832429383524831744 432145 364790 345557 180866
832429383543043328 431655 364485 345334 180881
832429383561254912 430815 364034 345065 180935
832429383579466496 429775 363433 344690 180900
832429383597678176 428979 363035 344377 180921
832429383615890432 428652 362854 344278 180865
832429383634102656 428736 362855 344271 180890
832429383652314752 429102 363090 344341 180879
832429383670526976 429631 363412 344583 180858
832429383688739200 430003 363538 344707 180927
832429383706951296 430330 363687 344827 180913
832429383725163520 430546 363848 344919 180941
832429383743375744 430767 364005 345016 180926
832429383761587840 431132 364242 345192 180917
832429383779800064 431585 364450 345319 180944
832429383798012288 432071 364672 345518 180905
832429383816224512 431972 364604 345441 180941
832429383834436608 431376 364329 345210 180930
832429383852648832 430546 363855 344903 180944
832429383870861056 429645 363360 344592 180948
832429383889073152 429059 363053 344403 180923
832429383907285376 428739 362904 344283 180871
832429383925497600 428878 362945 344297 180916
832429383943709696 429228 363144 344454 180913
832429383961921920 429675 363357 344596 180931
832429383980134144 429928 363544 344687 180932
832429383998346240 430209 363695 344824 180930
832429384016558464 430412 363844 344826 180893
832429384034770688 430823 363971 345024 180927
832429384052982784 431374 364288 345223 180921
832429384071195008 431976 364553 345438 180919
832429384089407232 432285 364757 345518 180901
832429384107619328 431921 364633 345410 180889
832429384125831552 431227 364220 345220 180875
832429384144043776 430187 363685 344846 180888
832429384162255872 429298 363165 344484 180941
832429384180468096 428681 362846 344313 180968
832429384198680320 428633 362863 344256 180888
832429384216892544 428936 363053 344390 180915
832429384235104592 429370 363299 344514 180913
832429384253318400 429896 363569 344685 180913
832429384271532160 430177 363671 344791 180910
832429384289745920 430457 363798 344871 180888
832429384307959680 430636 363938 344926 180908
832429384326173440 430991 364122 345060 180904
832429384344387200 431489 364391 345239 180921
832429384362600960 431934 364666 345408 180862
832429384380814720 432043 364690 345456 180902
832429384399028480 431566 364446 345299 180838
832429384417242112 430804 363989 344986 180882
832429384435455872 429880 363446 344650 180923
832429384453669632 429203 363148 344500 180914
832429384471883392 428778 362950 344326 180897
832429384490097152 428851 362979 344305 180933
832429384508310912 429183 363161 344443 180914
832429384526524672 429552 363351 344567 180909
832429384544738432 429969 363593 344745 180905
832429384562952192 430124 363671 344811 180913
832429384581165952 430361 363687 344867 180911
832429384599379712 430660 363963 344965 180936
832429384617593472 431071 364168 345158 180869
832429384635807232 431683 364457 345334 180933
832429384654020992 432164 364785 345453 180932
832429384672234752 432084 364699 345486 180896
832429384690448512 431521 364360 345296 180874
832429384708662272 430615 363901 344948 180916
832429384726876032 429616 363372 344607 180920
832429384745089664 428944 362968 344342 180961
832429384763303424 428607 362806 344226 180902
832429384781517184 428784 362909 344319 180908
832429384799730944 429152 363154 344448 180925
832429384817944704 429656 363335 344597 180915
832429384836158464 429993 363522 344747 180873
832429384854372224 430250 363712 344838 180836
832429384872585942 430567 363831 344904 180897
832429384890799104 430891 364062 345046 180924
832429384909012224 431288 364316 345203 180924
832429384927225344 431825 364553 345398 180894
832429384945438592 432067 364740 345467 180915
832429384963651712 431778 364551 345358 180911
832429384981864832 431084 364140 345114 180914
832429385000077952 430201 363630 344791 180867
832429385018291072 429402 363256 344518 180879
832429385036504192 428892 362945 344338 180900
832429385054717440 428732 362905 344270 180888
832429385072930560 429054 363110 344395 180938
832429385091143680 429443 363331 344554 180915
832429385109356800 429823 363500 344671 180845
832429385127569920 430092 363628 344762 180899
832429385145783040 430188 363732 344864 180921
832429385163996288 430404 363877 344905 180892
832429385182209408 430862 364006 345003 180881
832429385200422528 431419 364331 345218 180881
832429385218635648 431991 364660 345438 180892
832429385236848768 432116 364779 345464 180996
832429385255061888 431757 364496 345302 180966
832429385273275136 430977 364087 345059 180932
832429385291488256 429965 363620 344706 180881
832429385309701376 429235 363122 344464 180838
832429385327914496 428754 362920 344336 180936
832429385346127616 428670 362886 344258 180868
832429385364340864 429022 363034 344391 180900
832429385382553984 429525 363306 344540 180889
832429385400767104 429850 363497 344648 180971
832429385418980224 430188 363707 344735 180930
832429385437193344 430429 363833 344884 180923
832429385455406464 430734 363944 344966 180931
832429385473619712 431173 364217 345208 180932
832429385491832832 431715 364544 345355 180956
832429385510045920 432061 364721 345507 180872
832429385528259072 432030 364668 345458 180876
832429385546472192 431389 364360 345243 180860
832429385564685312 430561 363905 344950 180847
832429385582898560 429645 363383 344657 180889
832429385601111680 428902 363028 344412 180868
832429385619324800 428599 362811 344292 180877
832429385637537920 428782 362835 344258 180875
832429385655751040 429169 363070 344369 180884
832429385673964160 429677 363342 344605 180900
832429385692177408 430043 363604 344785 180888
832429385710390528 430271 363714 344868 180924
832429385728603648 430442 363798 344921 180913
832429385746816768 430685 363963 344992 180925
832429385765029888 431181 364184 345154 180896
832429385783243008 431814 364490 345369 180951
832429385801456256 432143 364753 345492 180965
832429385819669376 431960 364688 345445 180962
832429385837882496 431369 364287 345240 180934
832429385856095616 430512 363828 344905 180911
832429385874308736 429546 363390 344636 180907
832429385892521984 428941 363047 344373 180936
832429385910735104 428731 362941 344299 180926
832429385928948224 428903 363063 344341 180903
832429385947161344 429270 363209 344495 180900
832429385965374464 429774 363433 344635 180964
832429385983587584 430176 363624 344786 180917
832429386001800832 430351 363761 344851 180938
832429386020013952 430557 363879 344891 180905
832429386038227072 430937 364077 345056 180876
832429386056440192 431483 364369 345230 180933
832429386074653312 432105 364736 345523 180961
832429386092866432 432210 364816 345553 180968
832429386111079680 431760 364606 345393 180973
832429386129292800 430866 364111 345080 180943
832429386147505906 429914 363533 344711 180922
832429386165719040 429177 363113 344421 180952
832429386183932160 428683 362895 344259 180977
832429386202145280 428678 362865 344293 180915
832429386220358528 429095 363028 344451 181001
832429386238571648 429460 363266 344589 180936
832429386256784768 430003 363533 344784 181029
832429386274997888 430270 363734 344812 180935
832429386293211008 430372 363790 344906 180902
832429386311424128 430558 363888 344944 180866
832429386329637376 431002 364149 345140 180913
832429386347850496 431596 364423 345324 180925
832429386366063616 432031 364671 345460 180870
832429386384276736 432084 364769 345492 180914
832429386402489856 431563 364448 345272 180941
832429386420702976 430662 364018 345014 180951
832429386438916224 429806 363484 344630 180937
832429386457129344 429078 363079 344431 180927
832429386475342464 428778 362943 344326 180934
832429386493555584 428851 362991 344359 180938
832429386511768704 429145 363153 344472 180930
832429386529981952 429538 363343 344656 180937
832429386548195072 429964 363531 344788 180910
832429386566408192 430266 363784 344858 180957
832429386584621312 430492 363913 344946 180991
832429386602834432 430788 364032 344997 180934
832429386621047552 431251 364276 345181 180937
832429386639260800 431958 364579 345424 180931
832429386657473920 432237 364794 345498 180900
832429386675687040 432015 364686 345512 180905
832429386693900160 431269 364357 345193 180965
832429386712113280 430277 363789 344857 180965
832429386730326400 429333 363234 344513 180911
832429386748539648 428781 362871 344321 180924
832429386766752768 428662 362830 344247 180892
832429386784965892 428911 362946 344364 180935
832429386803178880 429357 363253 344476 180933
832429386821391872 429729 363458 344590 180893
832429386839604992 430150 363673 344783 180917
832429386857817984 430414 363843 344879 180917
832429386876031104 430624 363953 344914 180890
832429386894244096 430897 364041 345047 180902
832429386912457216 431329 364327 345243 180894
832429386930670208 431851 364578 345370 180880
832429386948883328 432064 364724 345461 180891
832429386967096320 431805 364559 345407 180907
832429386985309440 431063 364175 345098 180932
832429387003522432 430081 363624 344803 180847
832429387021735552 429238 363198 344502 180905
832429387039948544 428798 362931 344311 180907
832429387058161664 428767 362904 344326 180909
832429387076374656 428966 363090 344376 180894
832429387094587776 429373 363314 344523 180955
832429387112800768 429801 363543 344690 180968
832429387131013888 430037 363672 344778 180948
832429387149226880 430355 363863 344911 180969
832429387167440000 430659 363995 344994 180917
832429387185652992 431023 364117 345108 180906
832429387203866112 431535 364349 345250 180864
832429387222079104 432107 364683 345438 180874
832429387240292224 432246 364787 345574 180888
832429387258505216 431657 364513 345323 180890
832429387276718336 430730 364023 345039 180893
832429387294931328 429728 363432 344643 180858
832429387313144448 428985 363068 344373 180916
832429387331357440 428669 362830 344230 180834
832429387349570560 428743 362898 344277 180882
832429387367783552 429128 363116 344397 180979
832429387385996672 429566 363347 344592 180920
832429387404209664 429935 363531 344631 180951
832429387422422826 430249 363685 344776 180908
832429387440635136 430539 363841 344927 180933
832429387458847488 430832 364073 345023 180948
832429387477059840 431171 364276 345134 180962
832429387495272192 431720 364459 345274 180933
832429387513484544 432044 364697 345458 180919
832429387531696896 431940 364681 345430 180866
832429387549909248 431355 364263 345228 180887
832429387568121600 430419 363756 344947 180931
832429387586333952 429531 363323 344590 180915
832429387604546304 428883 363034 344384 180978
832429387622758656 428739 362853 344250 180936
832429387640971008 428961 363004 344343 180932
832429387659183488 429388 363234 344505 180949
832429387677395840 429725 363402 344681 180960
832429387695608192 429968 363623 344783 180894
832429387713820544 430143 363691 344802 180896
832429387732032896 430462 363924 344919 180952
832429387750245248 430852 364090 345075 180932
832429387768457600 431307 364241 345221 180928
832429387786669952 431870 364544 345432 180894
832429387804882304 432127 364747 345496 180974
832429387823094656 431856 364604 345440 180944
832429387841307008 431163 364201 345166 180928
832429387859519360 430201 363666 344822 180938
832429387877731712 429251 363194 344505 180887
832429387895944064 428730 362903 344323 180890
832429387914156416 428602 362809 344192 180917
832429387932368768 428863 362967 344300 180919
832429387950581120 429455 363305 344562 180896
832429387968793472 429895 363492 344711 180900
832429387987005824 430223 363665 344787 180955
832429388005218176 430438 363767 344872 180911
832429388023430528 430746 363977 344998 180967
832429388041642880 431114 364127 345136 180923
832429388059855338 431511 364450 345282 180949
832429388078067072 431954 364659 345414 180908
832429388096278784 432036 364661 345421 180933
832429388114490624 431496 364369 345271 180906
832429388132702336 430748 363999 345012 180923
832429388150914048 429824 363500 344703 180875
832429388169125760 429139 363098 344419 180894
832429388187337600 428706 362865 344287 180918
832429388205549312 428760 362905 344247 180955
832429388223761024 429149 363115 344404 180894
832429388241972736 429584 363321 344550 180911
832429388260184576 429931 363563 344684 180866
832429388278396288 430102 363619 344770 180867
832429388296608000 430271 363785 344807 180888
832429388314819840 430602 363941 344960 180864
832429388333031552 431086 364177 345069 180900
832429388351243264 431587 364449 345285 180900
832429388369454976 432097 364697 345420 180889
832429388387666816 432053 364660 345455 180880
832429388405878528 431432 364271 345233 180869
832429388424090240 430548 363912 344937 180887
832429388442302080 429642 363417 344594 180887
832429388460513792 428912 363030 344356 180908
832429388478725504 428635 362839 344228 180931
832429388496937216 428771 362915 344280 180916
832429388515149056 429173 363130 344427 180866
832429388533360768 429728 363425 344529 180917
832429388551572480 430030 363638 344742 180960
832429388569784192 430283 363750 344765 180916
832429388587996032 430533 363932 344932 180975
832429388606207744 430865 364111 345000 180985
832429388624419456 431360 364330 345183 180945
832429388642631296 431875 364614 345349 180937
832429388660843008 432166 364747 345478 180939
832429388679054720 431831 364633 345417 180955
832429388697266494 431035 364202 345155 180911
832429388715479168 430150 363649 344822 180919
832429388733691904 429336 363187 344487 180945
832429388751904768 428801 362945 344374 180967
832429388770117504 428754 362924 344294 180950
832429388788330368 428991 363044 344404 180984
832429388806543104 429466 363284 344575 180882
832429388824755968 429897 363511 344697 180934
832429388842968704 430222 363667 344872 180982
832429388861181568 430303 363719 344884 180978
832429388879394304 430496 363835 344942 180930
832429388897607168 430897 364016 345097 180984
832429388915819904 431412 364369 345277 180921
832429388934032640 432003 364694 345479 180932
832429388952245504 432156 364733 345556 180960
832429388970458240 431768 364562 345351 180947
832429388988671104 430904 364034 344953 180897
832429389006883840 429986 363562 344707 180894
832429389025096704 429270 363230 344468 180932
832429389043309440 428803 362958 344287 180936
832429389061522304 428750 363009 344348 180924
832429389079735040 428935 363005 344395 180880
832429389097947776 429467 363273 344597 180993
832429389116160640 429894 363546 344748 180911
832429389134373376 430201 363709 344834 180959
832429389152586240 430462 363825 344886 180904
832429389170798976 430751 363957 345029 180908
832429389189011840 431091 364227 345178 180924
832429389207224576 431702 364484 345366 180906
832429389225437440 432110 364693 345502 180886
832429389243650176 432017 364708 345490 180853
832429389261863040 431480 364437 345232 180944
832429389280075776 430403 363826 344879 180924
832429389298288512 429519 363363 344533 180962
832429389316501376 428902 362978 344386 180965
832429389334714274 428688 362869 344239 180919
832429389352926464 428886 362939 344333 180955
832429389371138688 429244 363198 344445 180934
832429389389350912 429728 363395 344601 180909
832429389407563136 430063 363629 344732 180936
832429389425775360 430356 363755 344837 180922
832429389443987584 430473 363841 344865 180902
832429389462199808 430816 364072 345027 180953
832429389480412032 431205 364200 345134 180898
832429389498624256 431851 364513 345399 180910
832429389516836480 432134 364719 345491 180957
832429389535048704 431923 364546 345450 180894
832429389553260800 431197 364222 345213 180886
832429389571473024 430273 363694 344892 180898
832429389589685248 429486 363366 344601 180953
832429389607897472 428897 363055 344408 180925
832429389626109696 428734 362897 344284 180915
832429389644321920 428938 363026 344353 180889
832429389662534144 429315 363221 344467 180928
832429389680746368 429651 363478 344599 180904
832429389698958592 430003 363612 344660 180882
832429389717170816 430308 363763 344842 180875
832429389735383040 430597 363900 344933 180886
832429389753595264 431045 364109 345035 180915
832429389771807488 431501 364384 345230 180924
832429389790019712 432121 364738 345456 180894
832429389808231936 432296 364769 345456 180928
832429389826444160 431863 364544 345320 180851
832429389844656384 430991 364114 345106 180904
832429389862868608 429914 363553 344744 180930
832429389881080832 429130 363127 344427 180964
832429389899293056 428749 362831 344295 180937
832429389917505152 428738 362885 344265 180978
832429389935717458 429079 363029 344474 180902
832429389953928960 429538 363318 344580 180934
832429389972140416 429960 363558 344760 180914
832429389990351744 430245 363692 344879 180900
832429390008563200 430418 363783 344887 180907
832429390026774528 430699 363961 344957 180921
832429390044985984 430986 364124 345054 180894
832429390063197312 431488 364399 345251 180914
832429390081408768 431988 364636 345390 180909
832429390099620096 432014 364661 345402 180940
832429390117831552 431514 364407 345267 180935
832429390136042880 430651 363963 344987 180909
832429390154254336 429710 363495 344608 180939
832429390172465792 429090 363092 344436 180902
832429390190677120 428844 362946 344356 180934
832429390208888576 428835 362996 344342 180928
832429390227099904 429188 363137 344519 180928
832429390245311360 429531 363442 344560 180958
832429390263522688 429910 363544 344714 180915
832429390281734144 430176 363666 344818 180948
832429390299945472 430432 363765 344870 180917
832429390318156928 430814 364003 344973 180935
832429390336368384 431286 364274 345193 180954
832429390354579712 431800 364564 345372 180888
832429390372791168 432206 364772 345510 180903
832429390391002496 432031 364715 345466 180917
832429390409213952 431288 364291 345193 180905
832429390427425280 430390 363785 344853 180966
832429390445636736 429432 363234 344533 180910
832429390463848064 428720 362926 344283 180937
832429390482059520 428637 362852 344299 180975
832429390500270848 428902 363031 344386 180954
832429390518482304 429364 363268 344508 180953
832429390536693760 429806 363503 344675 180947
832429390554905088 430165 363660 344791 180944
832429390573116400 430452 363752 344843 180913
832429390591329536 430710 363968 344944 180974
832429390609542656 430960 364120 345080 180952
832429390627755776 431417 364305 345231 180930
832429390645969024 431933 364680 345414 180908
832429390664182144 432091 364730 345476 180942
832429390682395264 431689 364519 345340 180913
832429390700608384 430930 364105 345074 180938
832429390718821504 430006 363621 344701 180920
832429390737034624 429251 363206 344457 180909
832429390755247872 428760 362944 344315 180940
832429390773460992 428819 362943 344319 180923
832429390791674112 429053 363109 344427 180934
832429390809887232 429456 363272 344516 180894
832429390828100352 429802 363486 344647 180864
832429390846313472 430083 363636 344769 180926
832429390864526720 430302 363689 344830 180958
832429390882739840 430577 363914 344942 180931
832429390900952960 431017 364139 345086 180921
832429390919166080 431552 364430 345300 180909
832429390937379200 432041 364689 345428 180892
832429390955592448 432112 364725 345467 180875
832429390973805568 431627 364465 345268 180928
832429390992018688 430660 364015 345015 180879
832429391010231808 429663 363432 344617 180884
832429391028444928 428924 363014 344375 180874
832429391046658048 428566 362817 344254 180943
832429391064871296 428628 362875 344263 180879
832429391083084416 429003 363075 344381 180875
832429391101297536 429527 363262 344564 180851
832429391119510656 429986 363563 344691 180838
832429391137723776 430276 363748 344818 180938
832429391155936896 430501 363772 344914 180852
832429391174150144 430835 364020 345044 180924
832429391192363264 431203 364222 345160 180887
832429391210576386 431762 364523 345385 180916
832429391228789504 432068 364770 345511 180917
832429391247002624 431828 364580 345410 180923
832429391265215744 431200 364289 345214 180942
832429391283428992 430288 363791 344828 180911
832429391301642112 429516 363329 344517 180972
832429391319855232 428910 362991 344363 180927
832429391338068352 428761 362888 344256 180939
832429391356281472 429045 363060 344441 180901
832429391374494592 429370 363267 344505 180945
832429391392707840 429824 363446 344625 180928
832429391410920960 430041 363616 344724 180931
832429391429134080 430225 363736 344790 180926
832429391447347200 430407 363749 344839 180890
832429391465560320 430782 364049 345043 180905
832429391483773440 431357 364287 345225 180920
832429391501986688 431925 364650 345405 180900
832429391520199808 432155 364756 345495 180931
832429391538412928 431841 364552 345410 180958
832429391556626048 431152 364193 345130 180956
832429391574839168 430163 363615 344808 180919
832429391593052416 429297 363178 344496 180917
832429391611265536 428722 362906 344276 180891
832429391629478656 428635 362861 344237 180894
832429391647691776 428976 363009 344352 180887
832429391665904896 429387 363241 344501 180938
832429391684118016 429796 363465 344650 180913
832429391702331264 430150 363666 344792 180928
832429391720544384 430373 363769 344855 180866
832429391738757504 430696 363965 344938 180916
832429391756970624 431073 364110 345076 180888
832429391775183744 431555 364450 345264 180903
832429391793396864 431982 364677 345468 180910
832429391811610112 432037 364732 345485 180905
832429391829823232 431514 364470 345299 180859
832429391848036372 430643 364022 344979 180887
832429391866250368 429709 363424 344606 180883
832429391884464384 428993 363042 344328 180949
832429391902678400 428765 362898 344279 180920
832429391920892416 428856 362957 344267 180889
832429391939106432 429202 363103 344404 180900
832429391957320448 429635 363369 344625 180881
832429391975534464 429987 363479 344668 180891
832429391993748480 430147 363680 344850 180943
832429392011962496 430342 363769 344890 180935
832429392030176512 430599 363885 345001 180913
832429392048390528 431035 364177 345123 180941
832429392066604544 431658 364445 345347 180920
832429392084818560 432067 364686 345458 180887
832429392103032576 431975 364591 345453 180894
832429392121246592 431411 364270 345235 180920
832429392139460608 430535 363832 344886 180908
832429392157674624 429630 363394 344607 180923
832429392175888640 429005 363027 344381 180909
832429392194102656 428684 362874 344255 180925
832429392212316672 428875 362951 344300 180930
832429392230530688 429136 363093 344419 180874
832429392248744704 429662 363408 344621 180934
832429392266958720 430021 363588 344723 180868
832429392285172736 430181 363721 344839 180887
832429392303386752 430506 363782 344869 180913
832429392321600768 430869 364037 345025 180897
832429392339814784 431417 364307 345180 180854
832429392358028800 431979 364642 345391 180822
832429392376242816 432152 364807 345481 180884
832429392394456832 431824 364678 345385 180922
832429392412670848 430979 364202 345117 180924
832429392430884864 430062 363612 344696 180877
832429392449098880 429267 363184 344453 180892
832429392467312896 428761 362877 344309 180890
832429392485526876 428713 362808 344224 180918
832429392503740032 428948 362965 344380 180931
832429392521953152 429426 363277 344532 180936
832429392540166272 429943 363535 344716 180924
832429392558379520 430220 363673 344811 180928
832429392576592640 430297 363814 344889 180877
832429392594805760 430503 363921 344921 180955
832429392613018880 430832 364087 345000 180860
832429392631232000 431360 364336 345145 180884
832429392649445120 431985 364662 345434 180909
832429392667658368 432067 364712 345461 180875
832429392685871488 431645 364460 345357 180869
832429392704084608 430826 364005 345072 180868
832429392722297728 429829 363520 344673 180888
832429392740510848 429129 363169 344396 180854
832429392758723968 428720 362953 344277 180943
832429392776937216 428695 362963 344306 180931
832429392795150336 428994 363028 344417 180911
832429392813363456 429400 363272 344565 180865
832429392831576576 429835 363495 344667 180859
832429392849789696 430160 363706 344782 180924
832429392868002816 430363 363853 344886 180931
832429392886216064 430651 364007 344960 180880
832429392904429184 431106 364150 345140 180849
832429392922642304 431721 364422 345307 180859
832429392940855424 432181 364708 345517 180927
832429392959068544 432024 364665 345455 180871
832429392977281792 431449 364387 345228 180864
832429392995494912 430425 363831 344893 180894
832429393013708032 429474 363283 344563 180927
832429393031921152 428861 362967 344340 180943
832429393050134272 428668 362862 344277 180897
832429393068347392 428851 362942 344339 180898
832429393086560640 429262 363151 344552 180938
832429393104773760 429686 363367 344636 180890
832429393122986854 430162 363657 344785 180932
832429393141199616 430371 363774 344892 180911
832429393159412352 430533 363819 344957 180852
832429393177625088 430819 364015 345039 180893
832429393195837696 431237 364244 345151 180952
832429393214050432 431644 364532 345301 180873
832429393232263168 432046 364672 345419 180902
832429393250475904 431821 364592 345350 180932
832429393268688512 431126 364258 345068 180959
832429393286901248 430169 363712 344799 180901
832429393305113984 429386 363200 344547 180937
832429393323326720 428908 362983 344410 180958
832429393341539328 428792 362872 344301 180916
832429393359752064 429046 362936 344345 180942
832429393377964800 429324 363252 344474 180932
832429393396177536 429693 363408 344598 180896
832429393414390272 430052 363622 344781 180898
832429393432602880 430379 363812 344876 180902
832429393450815616 430612 363941 344964 180953
832429393469028352 430942 364138 345101 180958
832429393487241088 431440 364376 345228 180970
832429393505453696 432039 364673 345407 180935
832429393523666432 432280 364758 345539 180923
832429393541879168 431789 364518 345364 180836
832429393560091904 430936 364081 345089 180899
832429393578304512 429833 363482 344665 180938
832429393596517248 429029 363099 344415 180953
832429393614729984 428678 362844 344307 180940
832429393632942720 428701 362919 344310 180896
832429393651155456 429111 363156 344470 180921
832429393669368064 429591 363390 344582 180917
832429393687580800 430009 363580 344744 180958
832429393705793536 430227 363724 344813 180877
832429393724006272 430490 363809 344915 180941
832429393742218880 430762 364008 345041 180876
832429393760431580 431160 364256 345141 180902
832429393778644352 431602 364458 345322 180958
832429393796857088 432079 364712 345416 180961
832429393815069824 432019 364712 345423 180941
832429393833282432 431429 364392 345265 180885
832429393851495168 430662 363924 344943 180908
832429393869707904 429682 363383 344611 180974
832429393887920640 429076 363024 344424 180991
832429393906133248 428761 362914 344266 180958
832429393924345984 428961 362991 344386 180984
832429393942558720 429294 363217 344467 180978
832429393960771456 429665 363458 344607 180942
832429393978984064 429953 363606 344748 180920
832429393997196800 430158 363695 344773 180951
832429394015409536 430446 363773 344817 180993
832429394033622272 430807 364055 345012 180886
832429394051835008 431291 364298 345236 180888
832429394070047616 431875 364638 345394 180901
832429394088260352 432194 364784 345492 180925
832429394106473088 432027 364659 345393 180888
832429394124685824 431361 364381 345191 180964
832429394142898432 430337 363772 344787 180932
832429394161111168 429403 363267 344532 180969
832429394179323904 428807 362879 344258 180916
832429394197536640 428552 362753 344212 180984
832429394215749248 428890 362913 344335 180921
832429394233961984 429290 363266 344481 180932
832429394252174720 429821 363505 344713 180975
832429394270387456 430130 363644 344791 180901
832429394288600192 430351 363784 344845 180939
832429394306812800 430705 363886 344957 180936
832429394325025536 431013 364080 345046 180927
832429394343238272 431483 364446 345297 180973
832429394361451008 431968 364681 345456 180917
832429394379663616 432013 364733 345455 180905
832429394397876308 431644 364491 345327 180911
832429394416089472 430913 364106 345046 180918
832429394434302592 430022 363590 344766 180969
832429394452515712 429264 363098 344454 180883
832429394470728960 428855 362886 344325 180932
832429394488942080 428807 362872 344332 180958
832429394507155200 429141 363118 344491 180941
832429394525368320 429548 363341 344562 180922
832429394543581440 429948 363558 344707 180933
832429394561794560 430184 363674 344799 180935
832429394580007808 430312 363730 344885 180914
832429394598220928 430634 363918 344986 180927
832429394616434048 431088 364132 345174 180920
832429394634647168 431669 364457 345359 180907
832429394652860288 432131 364710 345511 180950
832429394671073408 432049 364672 345516 180950
832429394689286656 431617 364427 345310 180950
832429394707499776 430708 363954 345010 180915
832429394725712896 429729 363448 344708 180903
832429394743926016 429016 363058 344420 180904
832429394762139136 428649 362807 344316 180924
832429394780352384 428640 362871 344278 180859
832429394798565504 429059 363063 344447 180919
832429394816778624 429567 363386 344643 180900
832429394834991744 429955 363607 344708 180904
832429394853204864 430263 363753 344842 180918
832429394871417984 430476 363799 344943 180924
832429394889631232 430846 363962 345021 180931
832429394907844352 431293 364211 345160 180954
832429394926057472 431797 364588 345390 180937
832429394944270592 432133 364756 345522 180944
832429394962483712 431854 364635 345425 180883
832429394980696832 431077 364256 345117 180905
832429394998910080 430234 363697 344810 180944
832429395017123200 429405 363296 344555 180915
832429395035336294 428829 362988 344345 180915
832429395053549440 428721 362878 344247 180922
832429395071762560 428846 363007 344359 180908
832429395089975680 429340 363285 344501 180913
832429395108188928 429793 363474 344648 180917
832429395126402048 430145 363660 344793 180914
832429395144615168 430324 363781 344833 180972
832429395162828288 430472 363821 344874 180892
832429395181041408 430851 364002 345006 180955
832429395199254528 431346 364218 345138 180862
832429395217467776 432005 364643 345453 180920
832429395235680896 432173 364745 345502 180944
832429395253894016 431770 364517 345305 180884
832429395272107136 431026 364139 345121 180956
832429395290320256 430103 363645 344802 180964
832429395308533376 429277 363154 344463 180865
832429395326746624 428778 362924 344339 180849
832429395344959744 428692 362905 344323 180853
832429395363172864 428887 363009 344437 180892
832429395381385984 429398 363278 344569 180914
832429395399599104 429793 363451 344694 180889
832429395417812224 430149 363646 344789 180958
832429395436025472 430398 363819 344862 180945
832429395454238592 430670 363884 344916 180896
832429395472451712 431033 364131 345064 180917
832429395490664832 431642 364461 345304 180940
832429395508877952 432214 364768 345516 180907
832429395527091200 432151 364707 345496 180917
832429395545304320 431572 364447 345312 180890
832429395563517440 430633 363879 344920 180908
832429395581730560 429713 363388 344598 180914
832429395599943680 429082 363072 344382 180936
832429395618156800 428783 362911 344245 180924
832429395636370048 428874 362960 344299 180917
832429395654583168 429268 363214 344487 180956
832429395672796272 429736 363463 344640 180922
832429395691009920 430074 363623 344747 180958
832429395709223552 430233 363706 344787 180870
832429395727437056 430521 363876 344915 180898
832429395745650688 430727 363974 345015 180970
832429395763864192 431086 364142 345144 180926
832429395782077824 431691 364499 345321 180966
832429395800291328 432127 364755 345504 180983
832429395818504960 432001 364702 345477 180925
832429395836718592 431392 364331 345277 180974
832429395854932096 430454 363878 344895 180971
832429395873145728 429601 363394 344635 180933
832429395891359232 429037 363048 344424 180928
832429395909572864 428713 362889 344263 180918
832429395927786496 428907 362988 344331 180905
832429395946000000 429183 363228 344492 180911
832429395964213632 429657 363386 344564 180924
832429395982427136 429990 363562 344754 180957
832429396000640768 430283 363723 344851 180978
832429396018854272 430482 363833 344886 180918
832429396037067904 430941 364067 345043 180947
832429396055281536 431469 364350 345298 180970
832429396073495040 432016 364689 345484 180880
832429396091708672 432202 364830 345575 180915
832429396109922176 431781 364603 345411 180902
832429396128135808 430938 364134 345078 180874
832429396146349440 429930 363567 344703 180911
832429396164562944 429175 363102 344481 180909
832429396182776576 428702 362892 344310 180863
832429396200990080 428698 362829 344305 180962
832429396219203712 428982 363009 344377 180877
832429396237417216 429500 363256 344486 180933
832429396255630848 429883 363517 344662 180890
832429396273844480 430185 363670 344841 180907
832429396292057984 430407 363802 344897 180941
832429396310271516 430615 363910 344947 180925
832429396328484352 431020 364084 345011 180939
832429396346697216 431391 364320 345254 180897
832429396364910208 431957 364599 345431 180877
832429396383123072 432086 364670 345475 180866
832429396401336064 431652 364431 345333 180932
832429396419548928 430799 363994 344994 180930
832429396437761920 429834 363508 344663 180883
832429396455974784 429194 363079 344375 180934
832429396474187776 428849 362946 344273 180921
832429396492400640 428837 362905 344310 180852
832429396510613632 429121 363124 344433 180903
832429396528826496 429527 363308 344523 180891
832429396547039488 429858 363474 344710 180901
832429396565252352 430193 363731 344827 180934
832429396583465344 430410 363734 344844 180849
832429396601678208 430729 363917 344949 180892
832429396619891200 431228 364200 345157 180904
832429396638104064 431837 364589 345391 180960
832429396656317056 432304 364756 345505 180906
832429396674529920 432155 364724 345490 180924
832429396692742784 431419 364384 345220 180881
832429396710955776 430523 363888 344911 180965
832429396729168640 429532 363376 344550 180943
832429396747381632 428826 362966 344314 180919
832429396765594496 428639 362789 344266 180905
832429396783807488 428849 362886 344290 180907
832429396802020352 429280 363120 344460 180953
832429396820233344 429747 363395 344637 180936
832429396838446208 430148 363606 344758 180910
832429396856659200 430399 363702 344852 180870
832429396874872064 430620 363894 344941 180937
832429396893085056 430873 364013 345015 180892
832429396911297920 431342 364281 345242 180943
832429396929510912 431911 364640 345444 180940
832429396947723874 432102 364698 345492 180952
832429396965937664 431840 364554 345376 180923
832429396984151424 431096 364158 345163 180932
832429397002365312 430217 363594 344825 180983
832429397020579072 429387 363185 344526 180939
832429397038792832 428884 362978 344400 180940
832429397057006592 428819 362960 344368 180910
832429397075220480 429022 363084 344404 180886
832429397093434240 429448 363267 344531 180907
832429397111648000 429799 363438 344656 180923
832429397129861888 430130 363629 344771 180910
832429397148075648 430376 363804 344891 180949
832429397166289408 430619 363868 345005 180894
832429397184503168 430934 364051 345066 180939
832429397202717056 431459 364340 345218 180913
832429397220930816 432033 364673 345422 180935
832429397239144576 432169 364737 345512 180917
832429397257358464 431773 364525 345422 180915
832429397275572224 430891 364021 345063 180944
832429397293785984 429845 363472 344688 180908
832429397311999744 429058 363069 344360 180893
832429397330213632 428577 362849 344233 180904
832429397348427392 428627 362872 344230 180925
832429397366641152 429042 363031 344358 180982
832429397384855040 429526 363338 344549 180978
832429397403068800 429923 363538 344700 180955
832429397421282560 430217 363680 344788 180931
832429397439496320 430491 363844 344881 180926
832429397457710208 430763 364016 345006 180918
832429397475923968 431186 364190 345066 180953
832429397494137728 431591 364464 345269 180915
832429397512351616 432036 364718 345460 180915
832429397530565376 431890 364659 345418 180892
832429397548779136 431351 364347 345230 180921
832429397566992896 430498 363832 344910 180973
832429397585206748 429584 363342 344603 180944
832429397603420800 428982 362990 344412 180909
832429397621634816 428757 362927 344270 180938
832429397639848832 428917 363017 344378 180877
832429397658062848 429273 363200 344531 180880
832429397676276864 429706 363461 344709 180909
832429397694490880 430045 363616 344788 180913
832429397712704896 430296 363698 344856 180888
832429397730918912 430512 363784 344926 180940
832429397749132928 430817 364025 345048 180952
832429397767346944 431285 364273 345167 180928
832429397785560960 431869 364609 345414 180961
832429397803774976 432103 364790 345515 180943
832429397821988992 431883 364577 345391 180971
832429397840203008 431259 364214 345148 180857
832429397858417024 430288 363718 344808 180885
832429397876631040 429385 363215 344528 180919
832429397894845056 428794 362875 344304 180924
832429397913059072 428561 362797 344232 180873
832429397931273088 428934 362997 344344 180974
832429397949487104 429335 363203 344566 180920
832429397967701120 429864 363457 344705 180916
832429397985915136 430148 363655 344775 180943
832429398004129152 430390 363854 344886 180935
832429398022343168 430613 363971 344931 180904
832429398040557184 431064 364192 345134 180938
832429398058771200 431503 364397 345263 180925
832429398076985216 431977 364660 345447 180909
832429398095199232 432037 364734 345517 180967
832429398113413248 431550 364474 345323 180906
832429398131627264 430791 364028 345007 180909
832429398149841280 429860 363483 344651 180877
832429398168055296 429163 363130 344408 180866
832429398186269312 428741 362890 344300 180885
832429398204483328 428814 362933 344331 180905
832429398222697244 429244 363061 344465 180919
832429398240911232 429644 363359 344619 180905
832429398259125248 429979 363536 344717 180883
832429398277339264 430214 363679 344839 180925
832429398295553280 430351 363755 344872 180881
832429398313767296 430563 363846 344952 180903
832429398331981312 431028 364139 345116 180920
832429398350195328 431607 364460 345296 180927
832429398368409344 432050 364689 345456 180924
832429398386623360 431996 364708 345522 180949
832429398404837376 431480 364355 345278 180944
832429398423051392 430650 363879 344974 180927
832429398441265408 429697 363462 344658 180925
832429398459479424 428994 363023 344417 180939
832429398477693440 428662 362861 344262 180880
832429398495907456 428763 362921 344262 180911
832429398514121472 429087 363031 344448 180910
832429398532335488 429631 363365 344637 180891
832429398550549504 429958 363565 344766 180930
832429398568763520 430302 363713 344851 180902
832429398586977536 430471 363807 344912 180914
832429398605191552 430803 364020 345010 180830
832429398623405568 431374 364346 345218 180940
832429398641619584 431914 364621 345458 180873
832429398659833600 432066 364711 345488 180866
832429398678047616 431869 364609 345432 180906
832429398696261632 431038 364214 345183 180909
832429398714475648 430157 363704 344818 180896
832429398732689664 429319 363301 344509 180907
832429398750903680 428743 362937 344316 180918
832429398769117696 428679 362919 344271 180942
832429398787331712 428913 363015 344349 180869
832429398805545728 429389 363261 344531 180917
832429398823759744 429902 363514 344771 180936
832429398841973760 430218 363679 344807 180965
832429398860187748 430357 363831 344890 180904
832429398878401152 430561 363887 344898 180952
832429398896614528 430892 364119 345073 180889
832429398914827904 431353 364377 345221 180893
832429398933041280 432025 364697 345414 180862
832429398951254656 432164 364752 345494 180924
832429398969467904 431758 364503 345402 180893
832429398987681280 430970 364102 345063 180948
832429399005894656 430043 363557 344700 180892
832429399024108032 429247 363143 344446 180905
832429399042321408 428819 362911 344343 180956
832429399060534784 428740 362893 344276 180880
832429399078748160 429051 363060 344389 180891
832429399096961536 429407 363308 344523 180860
832429399115174784 429896 363540 344625 180970
832429399133388160 430217 363699 344791 180966
832429399151601536 430460 363847 344909 180937
832429399169814912 430665 363985 344958 180940
832429399188028288 431078 364193 345158 180983
832429399206241664 431720 364531 345381 180934
832429399224455040 432146 364749 345490 180956
832429399242668416 432116 364765 345458 180919
832429399260881664 431520 364498 345320 180938
832429399279095040 430581 363951 344952 180910
832429399297308416 429592 363390 344599 180925
832429399315521792 428930 363044 344352 180900
832429399333735168 428590 362837 344170 180869
832429399351948544 428743 362927 344263 180903
832429399370161920 429177 363097 344445 180926
832429399388375296 429630 363387 344543 180904
832429399406588544 430115 363655 344726 180999
832429399424801920 430352 363834 344860 180988
832429399443015296 430562 363916 344950 180960
832429399461228672 430833 364087 345022 180954
832429399479442048 431192 364261 345188 181004
832429399497655364 431694 364507 345363 180981
832429399515870080 432079 364712 345522 180920
832429399534084736 431925 364650 345410 180897
832429399552299392 431342 364212 345196 180916
832429399570514048 430380 363758 344865 180993
832429399588728704 429468 363269 344578 180900
832429399606943360 428971 362975 344372 180958
832429399625158144 428815 362932 344330 180950
832429399643372800 428932 363085 344401 180967
832429399661587456 429307 363231 344536 180978
832429399679802112 429637 363393 344638 180942
832429399698016768 430058 363621 344784 180944
832429399716231424 430289 363766 344864 180953
832429399734446080 430558 363937 344957 180942
832429399752660736 430998 364107 345084 180977
832429399770875392 431450 364416 345278 180991
832429399789090048 432051 364683 345489 180985
832429399807304832 432247 364794 345525 180947
832429399825519488 431894 364670 345459 180968
832429399843734144 431084 364158 345135 180985
832429399861948800 430010 363558 344770 180915
832429399880163456 429089 363077 344361 180924
832429399898378112 428720 362920 344306 180982
832429399916592768 428742 362923 344332 180935
832429399934807424 428987 363053 344425 180909
832429399953022080 429525 363341 344567 180936
832429399971236736 429879 363462 344659 180908
832429399989451520 430192 363705 344842 180918
832429400007666176 430499 363867 344958 180957
832429400025880832 430783 363978 345000 180951
832429400044095488 431142 364150 345144 180977
832429400062310144 431556 364428 345308 180951
832429400080524800 431980 364622 345474 180918
832429400098739456 432003 364695 345511 180884
832429400116954112 431528 364442 345289 180927
832429400135168756 430653 363968 345024 180906
832429400153381888 429736 363486 344670 180875
832429400171595008 429093 363164 344412 180913
832429400189808128 428777 362934 344265 180890
832429400208021376 428900 363005 344325 180920
832429400226234496 429210 363190 344453 180937
832429400244447616 429676 363401 344649 180971
832429400262660736 429931 363528 344728 180951
832429400280873856 430090 363618 344783 180995
832429400299086976 430344 363769 344857 180945
832429400317300224 430787 363947 344957 180908
832429400335513344 431249 364264 345120 180936
832429400353726464 431794 364535 345363 180943
832429400371939584 432168 364749 345495 180944
832429400390152704 432012 364690 345474 180975
832429400408365824 431312 364331 345195 180968
832429400426579072 430337 363830 344881 180918
832429400444792192 429424 363283 344612 180889
832429400463005312 428772 362922 344306 180918
832429400481218432 428585 362842 344237 180893
832429400499431552 428818 363022 344325 180959
832429400517644672 429351 363218 344548 180924
832429400535857920 429815 363518 344715 180937
832429400554071040 430063 363638 344766 180891
832429400572284160 430309 363745 344855 180952
832429400590497280 430580 363971 344965 180924
832429400608710400 430974 364133 345125 180958
832429400626923648 431420 364378 345268 180971
832429400645136768 431844 364669 345450 180926
832429400663349888 431962 364712 345521 180856
832429400681563008 431723 364561 345426 180885
832429400699776128 430976 364214 345135 180911
832429400717989248 430011 363650 344767 180925
832429400736202496 429232 363217 344487 180967
832429400754415616 428812 362889 344292 180925
832429400772628734 428799 362892 344297 180954
832429400790842752 429010 363059 344350 180911
832429400809056768 429480 363363 344599 180932
832429400827270784 429869 363551 344730 180945
832429400845484800 429994 363589 344774 180875
832429400863698816 430188 363650 344838 180863
832429400881912832 430493 363853 344913 180852
832429400900126848 430959 364070 345060 180872
832429400918340864 431518 364408 345291 180848
832429400936554880 431922 364661 345478 180907
832429400954768896 432069 364693 345503 180894
832429400972982912 431683 364426 345310 180914
832429400991196928 430781 363957 345031 180935
832429401009410944 429812 363435 344709 180909
832429401027624960 429012 363050 344387 180930
832429401045838976 428667 362827 344230 180950
832429401064052992 428603 362821 344240 180935
832429401082267008 428969 363008 344373 180915
832429401100481024 429537 363307 344550 180897
832429401118695040 429949 363576 344707 180925
832429401136909056 430241 363734 344792 180933
832429401155123072 430493 363861 344944 180939
832429401173337088 430837 363966 345005 180931
832429401191551104 431273 364226 345177 180897
832429401209765120 431743 364517 345338 180880
832429401227979136 432150 364773 345526 180920
832429401246193152 431937 364644 345453 180893
832429401264407168 431229 364256 345174 180836
832429401282621184 430350 363762 344873 180857
832429401300835200 429469 363284 344540 180890
832429401319049216 428869 362994 344375 180886
832429401337263232 428665 362832 344332 180866
832429401355477248 428846 362962 344344 180932
832429401373691264 429278 363229 344453 180859
832429401391905280 429780 363475 344673 180927
832429401410119238 430091 363627 344777 180916
832429401428333056 430266 363689 344812 180918
832429401446546816 430377 363793 344809 180924
832429401464760704 430841 363979 345000 180921
832429401482974464 431363 364296 345208 180897
832429401501188224 431949 364642 345431 180918
832429401519401984 432198 364771 345486 180957
832429401537615872 431837 364576 345358 180927
832429401555829632 431067 364132 345128 180924
832429401574043392 430132 363654 344774 180882
832429401592257280 429294 363138 344415 180928
832429401610471040 428737 362910 344307 180911
832429401628684800 428616 362863 344237 180932
832429401646898560 428853 362944 344298 180911
832429401665112448 429368 363236 344468 180875
832429401683326208 429740 363454 344624 180914
832429401701539968 430078 363626 344711 180884
832429401719753856 430361 363837 344842 180923
832429401737967616 430664 363968 344974 180906
832429401756181376 431074 364085 345104 180947
832429401774395136 431592 364420 345303 180951
832429401792609024 432067 364717 345539 180899
832429401810822784 432112 364715 345521 180947
832429401829036544 431591 364484 345299 180941
832429401847250432 430653 363910 344953 180898
832429401865464192 429762 363488 344719 180959
832429401883677952 429000 363044 344369 180917
832429401901891712 428693 362919 344279 180853
832429401920105600 428718 362914 344328 180889
832429401938319360 429065 363100 344421 180874
832429401956533120 429640 363340 344575 180937
832429401974747008 429990 363612 344768 180906
832429401992960768 430237 363663 344817 180921
832429402011174528 430398 363842 344914 180953
832429402029388288 430553 363914 344935 180868
832429402047602112 430966 364093 345107 180920
832429402065814656 431591 364464 345306 180923
832429402084027136 432011 364627 345464 180978
832429402102239616 432014 364667 345470 180964
832429402120452096 431422 364326 345267 180883
832429402138664576 430514 363800 344914 180918
832429402156877056 429644 363397 344637 180885
832429402175089536 428989 363029 344368 180954
832429402193302016 428622 362840 344211 180924
832429402211514624 428826 362990 344345 180924
832429402229727104 429140 363154 344438 180915
832429402247939584 429584 363410 344663 180881
832429402266152064 429938 363552 344766 180903
832429402284364544 430241 363745 344843 180934
832429402302577024 430452 363886 344884 180931
832429402320789504 430837 364030 345095 180939
832429402339001984 431324 364308 345254 180907
832429402357214464 431994 364650 345430 180883
832429402375426944 432232 364827 345563 180900
832429402393639424 431896 364623 345418 180907
832429402411851904 431153 364185 345155 180919
832429402430064384 430062 363605 344749 180903
832429402448276864 429277 363215 344469 180945
832429402466489344 428714 362911 344229 180919
832429402484701952 428636 362870 344277 180970
832429402502914432 428935 362974 344353 180926
832429402521126912 429368 363222 344477 180908
832429402539339392 429886 363439 344636 180925
832429402557551872 430256 363670 344724 180891
832429402575764352 430410 363768 344887 180884
832429402593976832 430541 363885 344992 180889
832429402612189312 430862 364063 345101 180897
832429402630401792 431357 364347 345248 180940
832429402648614272 431948 364714 345430 180938
832429402666826752 432076 364786 345533 180928
832429402685039210 431674 364563 345332 180877
832429402703251712 430877 364085 345045 180891
832429402721464192 429834 363546 344718 180875
832429402739676672 429164 363102 344390 180846
832429402757889152 428792 362919 344293 180905
832429402776101632 428814 362919 344330 180874
832429402794314112 429055 363131 344400 180915
832429402812526592 429404 363366 344551 180947
832429402830739072 429780 363486 344668 180945
832429402848951680 430122 363611 344734 180915
832429402867164160 430283 363758 344807 180897
832429402885376640 430625 363939 344906 180890
832429402903589120 431122 364187 345082 180922
832429402921801600 431668 364495 345299 180890
832429402940014080 432203 364787 345498 180905
832429402958226560 432168 364802 345528 180943
832429402976439040 431536 364386 345198 180911
832429402994651520 430533 363863 344931 180917
832429403012864000 429548 363339 344558 180874
832429403031076480 428888 362878 344319 180879
832429403049288960 428581 362756 344222 180865
832429403067501440 428827 362933 344295 180935
832429403085713920 429195 363165 344428 180943
832429403103926400 429669 363377 344555 180851
832429403122138880 430069 363614 344749 180899
832429403140351488 430364 363838 344837 180927
832429403158563968 430541 363887 344935 180950
832429403176776448 430764 364018 344994 180916
832429403194988928 431286 364277 345244 180979
832429403213201408 431722 364521 345400 180942
832429403231413888 432051 364706 345530 180939
832429403249626368 431838 364548 345445 180920
832429403267838848 431156 364224 345148 180937
832429403286051328 430196 363674 344822 180938
832429403304263808 429391 363289 344551 180922
832429403322476298 428900 362941 344360 180922
832429403340688384 428845 362909 344331 180907
832429403358900480 428943 363010 344374 180869
832429403377112448 429348 363238 344536 180883
832429403395324544 429715 363404 344674 180936
832429403413536640 430007 363594 344742 180982
832429403431748608 430220 363789 344856 180952
832429403449960704 430465 363947 344953 180918
832429403468172800 430855 364031 345009 180843
832429403486384768 431393 364361 345193 180923
832429403504596864 431910 364661 345409 180898
832429403522808960 432173 364754 345516 180918
832429403541020928 431781 364569 345401 180903
832429403559233024 430942 364073 345051 180965
832429403577445120 429958 363554 344743 180960
832429403595657088 429138 363124 344497 180928
832429403613869184 428639 362870 344343 180950
832429403632081280 428615 362851 344277 180943
832429403650293248 428959 363050 344358 180938
832429403668505344 429449 363269 344514 180964
832429403686717440 429869 363503 344709 180939
832429403704929408 430160 363668 344851 180926
832429403723141504 430461 363798 344897 180932
832429403741353600 430806 363999 345074 180947
832429403759565568 431188 364209 345146 180927
832429403777777664 431627 364491 345287 180888
832429403795989760 431975 364699 345434 180917
832429403814201728 431949 364655 345457 180872
832429403832413824 431477 364407 345276 180899
832429403850625792 430606 363928 344979 180958
832429403868837888 429640 363395 344659 180922
832429403887049984 429012 363035 344366 180896
832429403905261952 428777 362874 344232 180932
832429403923474048 428892 362938 344255 180872
832429403941686144 429248 363153 344404 180883
832429403959898136 429668 363374 344603 180892
832429403978110208 429996 363550 344719 180905
832429403996322304 430154 363664 344782 180926
832429404014534272 430393 363810 344875 180955
832429404032746368 430773 364024 345033 180950
832429404050958464 431193 364287 345130 180942
832429404069170432 431776 364574 345374 180950
832429404087382528 432198 364758 345517 180899
832429404105594624 431961 364699 345422 180928
832429404123806592 431363 364378 345213 180948
832429404142018688 430361 363833 344899 180897
832429404160230784 429391 363274 344551 180922
832429404178442752 428799 362989 344338 180910
832429404196654848 428497 362813 344198 180873
832429404214866944 428784 362966 344279 180887
832429404233078912 429273 363255 344481 180932
832429404251291008 429840 363472 344684 180943
832429404269503104 430073 363650 344799 180947
832429404287715072 430251 363816 344858 180907
832429404305927168 430556 363866 344915 180897
832429404324139264 431032 364213 345142 180873
832429404342351232 431429 364387 345302 180889
832429404360563328 431915 364654 345461 180932
832429404378775424 432071 364716 345461 180927
832429404396987392 431654 364591 345339 180932
832429404415199488 430918 364130 344982 180907
832429404433411584 429957 363615 344747 180930
832429404451623552 429170 363136 344450 180923
832429404469835648 428824 362851 344295 180923
832429404488047616 428785 362866 344301 180956
832429404506259712 429140 363162 344445 180926
832429404524471808 429500 363378 344609 180933
832429404542683776 429903 363569 344663 180943
832429404560895872 430186 363747 344799 180991
832429404579107968 430242 363811 344846 180918
832429404597319976 430447 363918 344938 180927
832429404615531520 430989 364085 345083 180928
832429404633743104 431536 364417 345314 180914
832429404651954816 432101 364707 345489 180950
832429404670166400 432100 364691 345516 180916
832429404688377984 431619 364467 345307 180917
832429404706589568 430752 363981 344971 180863
832429404724801280 429827 363540 344677 180954
832429404743012864 429080 363069 344409 180906
832429404761224448 428732 362851 344236 180926
832429404779436032 428681 362877 344249 180908
832429404797647744 429038 363064 344391 180886
832429404815859328 429487 363330 344619 180880
832429404834070912 429942 363519 344718 180899
832429404852282496 430250 363749 344870 180930
832429404870494208 430414 363849 344902 180958
832429404888705792 430703 363978 345000 180956
832429404906917376 431260 364219 345234 180993
832429404925128960 431851 364543 345407 180928
832429404943340672 432172 364792 345520 180937
832429404961552256 432032 364640 345387 180964
832429404979763840 431260 364256 345128 181020
832429404997975424 430289 363751 344846 180966
832429405016187136 429415 363278 344535 180960
832429405034398720 428901 363008 344304 180908
832429405052610304 428721 362873 344271 180923
832429405070821888 428923 362959 344318 180924
832429405089033600 429258 363213 344492 180910
832429405107245184 429739 363428 344606 180873
832429405125456768 430145 363701 344827 180938
832429405143668352 430330 363717 344803 180902
832429405161880064 430542 363804 344930 180941
832429405180091648 430774 364038 345025 180916
832429405198303232 431326 364365 345216 180887
832429405216514816 431911 364656 345405 180885
832429405234726556 432181 364766 345470 180920
832429405252938112 431869 364652 345411 180911
832429405271149696 431041 364218 345145 180966
832429405289361408 430098 363659 344748 180925
832429405307572992 429306 363226 344532 180949
832429405325784576 428885 362931 344327 180919
832429405343996160 428816 362956 344313 180882
832429405362207872 428884 363006 344369 180938
832429405380419456 429287 363248 344501 180965
832429405398631040 429874 363466 344699 180894
832429405416842624 430145 363713 344761 180917
832429405435054336 430374 363817 344870 181005
832429405453265920 430667 363876 344948 180925
832429405471477504 431051 364119 345135 180985
832429405489689088 431617 364420 345337 180911
832429405507900800 432100 364770 345473 180967
832429405526112384 432076 364704 345451 180906
832429405544323968 431638 364442 345311 180930
832429405562535552 430725 364035 345001 180930
832429405580747264 429657 363473 344630 180956
832429405598958848 428934 362997 344400 180952
832429405617170432 428612 362851 344243 180935
832429405635382016 428782 362898 344340 180950
832429405653593728 429128 363108 344432 180938
832429405671805312 429527 363326 344589 180952
832429405690016896 429946 363620 344715 180925
832429405708228480 430230 363749 344819 180849
832429405726440192 430477 363853 344919 180863
832429405744651776 430716 364015 345039 180926
832429405762863360 431092 364170 345134 180927
832429405781074944 431658 364404 345340 180923
832429405799286656 432052 364639 345416 180921
832429405817498240 432002 364648 345396 180958
832429405835709824 431353 364398 345209 180922
832429405853921408 430526 363852 344954 180924
832429405872133126 429586 363365 344569 180887
832429405890344320 428975 363039 344383 180905
832429405908555520 428730 362896 344278 180919
832429405926766720 428960 363058 344385 180958
832429405944977920 429270 363186 344512 180890
832429405963188992 429619 363409 344664 180926
832429405981400192 429934 363655 344789 180956
832429405999611392 430238 363708 344856 180894
832429406017822592 430509 363857 344945 180986
832429406036033792 430813 363996 345056 180941
832429406054244992 431300 364282 345184 180908
832429406072456064 431930 364575 345349 180943
832429406090667264 432189 364813 345527 180914
832429406108878464 431879 364680 345400 180948
832429406127089664 431074 364278 345155 180940
832429406145300864 430095 363683 344772 180919
832429406163512064 429200 363149 344426 180928
832429406181723264 428755 362932 344249 180950
832429406199934336 428594 362823 344225 180921
832429406218145536 429034 363035 344408 180906
832429406236356736 429383 363267 344498 180930
832429406254567936 429812 363444 344643 180879
832429406272779136 430302 363700 344802 180950
832429406290990336 430437 363833 344873 180966
832429406309201536 430647 363886 344918 180910
832429406327412608 430971 364114 345096 180924
832429406345623808 431382 364340 345212 180923
832429406363835008 431915 364642 345399 180993
832429406382046208 432017 364589 345426 180900
832429406400257408 431568 364435 345298 180928
832429406418468608 430769 363977 345040 180948
832429406436679680 429872 363487 344668 180876
832429406454890880 429101 363078 344475 180891
832429406473102080 428701 362890 344285 180896
832429406491313280 428853 362982 344359 180914
832429406509524448 429147 363127 344434 180908
832429406527735936 429475 363300 344526 180917
832429406545947392 429892 363524 344684 180959
832429406564158720 430036 363630 344740 180913
832429406582370176 430289 363795 344902 180899
832429406600581504 430672 363961 344973 180927
832429406618792960 431089 364229 345165 180944
832429406637004288 431717 364555 345376 180923
832429406655215744 432145 364760 345533 180939
832429406673427072 432054 364674 345444 180910
832429406691638528 431499 364350 345252 180870
832429406709849984 430521 363904 344885 180911
832429406728061312 429579 363356 344549 180926
832429406746272768 428834 362951 344272 180918
832429406764484096 428510 362813 344255 180949
832429406782695552 428691 362907 344231 180945
832429406800906880 429202 363176 344448 180916
832429406819118336 429679 363434 344596 180924
832429406837329664 430006 363644 344739 180921
832429406855541120 430286 363774 344829 180956
832429406873752448 430550 363857 344905 180906
832429406891963904 430834 364032 345032 180892
832429406910175360 431247 364279 345170 180897
832429406928386688 431789 364621 345380 180897
832429406946598144 432040 364682 345432 180911
832429406964809472 431759 364503 345297 180927
832429406983020928 431086 364185 345129 180892
832429407001232256 430100 363685 344783 180913
832429407019443712 429323 363198 344486 180928
832429407037655040 428791 362860 344288 180930
832429407055866496 428742 362926 344312 180932
832429407074077952 429041 362989 344329 180941
832429407092289280 429419 363229 344495 180932
832429407110500736 429789 363493 344641 180918
832429407128712064 430053 363603 344706 180926
832429407146923398 430198 363713 344805 180887
832429407165135616 430404 363861 344945 180922
832429407183347840 430830 364040 345043 180953
832429407201560192 431395 364298 345213 180938
832429407219772416 432007 364626 345380 180956
832429407237984640 432070 364707 345500 180937
832429407256196992 431779 364526 345328 180966
832429407274409216 430947 364057 345067 180882
832429407292621568 429908 363531 344721 180904
832429407310833792 429160 363147 344463 180950
832429407329046016 428696 362870 344258 180862
832429407347258368 428595 362762 344225 180872
832429407365470592 428978 363034 344390 180905
832429407383682816 429490 363316 344561 180942
832429407401895168 429893 363547 344690 180897
832429407420107392 430199 363730 344778 180979
832429407438319616 430406 363818 344841 180916
832429407456531968 430772 363941 345033 180885
832429407474744192 431144 364139 345145 180935
832429407492956544 431652 364434 345342 180933
832429407511168768 432033 364679 345498 180948
832429407529380992 431948 364656 345434 180901
832429407547593344 431286 364289 345213 180913
832429407565805568 430456 363851 344875 180960
832429407584017792 429583 363387 344616 180965
832429407602230144 428940 363024 344307 180894
832429407620442368 428722 362896 344280 180869
832429407638654592 428949 362976 344351 180932
832429407656866944 429304 363204 344484 180894
832429407675079168 429685 363459 344612 180937
832429407693291520 430105 363614 344745 180984
832429407711503744 430177 363728 344791 180923
832429407729715968 430359 363876 344897 180918
832429407747928320 430791 364092 345062 180976
832429407766140544 431209 364293 345120 180924
832429407784352866 431793 364577 345367 180944
832429407802566656 432120 364725 345535 180954
832429407820780416 431947 364595 345377 180919
832429407838994304 431317 364337 345251 180926
832429407857208064 430345 363827 344877 180868
832429407875421824 429442 363290 344526 180872
832429407893635584 428876 362979 344348 180941
832429407911849472 428697 362801 344299 180942
832429407930063232 428842 362955 344347 180937
832429407948276992 429194 363151 344413 180907
832429407966490880 429691 363389 344613 180880
832429407984704640 430096 363642 344789 180948
832429408002918400 430324 363741 344879 180906
832429408021132160 430548 363857 344923 180918
832429408039346048 430981 364118 345024 180897
832429408057559808 431550 364458 345304 180967
832429408075773568 432017 364670 345462 180931
832429408093987456 432097 364722 345513 180913
832429408112201216 431610 364455 345329 180886
832429408130414976 430752 364034 345020 180921
832429408148628736 429856 363528 344694 180928
832429408166842624 429087 363164 344419 180971
832429408185056384 428639 362869 344271 180892
832429408203270144 428734 362904 344275 180889
832429408221484032 429108 363040 344426 180887
832429408239697792 429567 363358 344592 180942
832429408257911552 430006 363609 344714 180951
832429408276125312 430276 363744 344861 180952
832429408294339200 430452 363814 344870 180988
832429408312552960 430632 363884 344940 180928
832429408330766720 431034 364133 345080 180942
832429408348980480 431622 364435 345335 180958
832429408367194368 432007 364674 345432 180950
832429408385408128 431975 364626 345393 180872
832429408403621888 431521 364393 345247 180958
832429408421835734 430688 363988 344990 180992
832429408440048640 429766 363494 344647 180986
832429408458261504 429067 363153 344375 180961
832429408476474496 428731 362877 344242 180989
832429408494687360 428708 362915 344267 180879
832429408512900352 429097 363138 344408 180930
832429408531113216 429583 363370 344582 180965
832429408549326208 429946 363578 344770 180971
832429408567539072 430286 363681 344841 180969
832429408585752064 430443 363852 344874 180897
832429408603964928 430787 364034 344963 180909
832429408622177920 431307 364312 345165 180957
832429408640390784 431888 364585 345396 180919
832429408658603776 432204 364803 345536 180954
832429408676816640 431973 364656 345461 180944
832429408695029632 431172 364218 345195 180872
832429408713242496 430140 363683 344811 180858
832429408731455488 429271 363188 344491 180872
832429408749668352 428714 362846 344270 180863
832429408767881344 428624 362825 344292 180939
832429408786094208 428806 362886 344293 180903
832429408804307072 429276 363165 344558 180899
832429408822520064 429856 363421 344679 180901
832429408840732928 430191 363701 344824 180903
832429408858945920 430345 363802 344868 180889
832429408877158784 430548 363905 344910 180915
832429408895371776 430797 364056 345073 180884
832429408913584640 431282 364292 345236 180932
832429408931797632 431901 364603 345420 180896
832429408950010496 432069 364738 345468 180860
832429408968223488 431749 364496 345356 181005
832429408986436352 430883 364119 345021 180882
832429409004649344 430091 363612 344737 180956
832429409022862208 429282 363167 344474 180911
832429409041075200 428893 363022 344343 180985
832429409059288090 428843 362948 344280 180931
832429409077501696 428997 363125 344390 180916
832429409095715328 429431 363301 344528 180952
832429409113928832 429730 363473 344635 180885
832429409132142464 430084 363632 344762 180894
832429409150355968 430373 363806 344800 180880
832429409168569600 430598 363901 344931 180850
832429409186783104 431037 364160 345138 180898
832429409204996736 431568 364431 345289 180880
832429409223210368 432143 364701 345485 180870
832429409241423872 432137 364731 345458 180922
832429409259637504 431659 364442 345347 180941
832429409277851008 430662 363866 344984 180902
832429409296064640 429671 363386 344604 180932
832429409314278272 428913 362903 344291 180899
832429409332491776 428604 362807 344206 180902
832429409350705408 428685 362951 344263 180921
832429409368918912 429049 363074 344390 180936
832429409387132544 429568 363366 344581 180865
832429409405346048 429953 363534 344691 180898
832429409423559680 430309 363790 344905 180904
832429409441773312 430536 363882 344926 180935
832429409459986816 430848 364030 345041 180905
832429409478200448 431224 364237 345148 180900
832429409496413952 431688 364518 345336 180888
832429409514627584 432032 364728 345456 180896
832429409532841216 431986 364668 345459 180886
832429409551054720 431298 364301 345192 180886
832429409569268352 430373 363813 344916 180914
832429409587481856 429487 363304 344630 180927
832429409605695488 428944 363045 344406 181003
832429409623908992 428890 363049 344444 180983
832429409642122624 429037 363029 344441 180964
832429409660336256 429346 363256 344577 180978
832429409678549760 429764 363477 344687 180982
832429409696763334 429998 363593 344766 180945
832429409714976512 430254 363758 344862 180936
832429409733189632 430479 363915 344948 180945
832429409751402752 430905 364090 345056 180957
832429409769616000 431357 364324 345234 180899
832429409787829120 431993 364724 345466 180930
832429409806042240 432259 364828 345519 180907
832429409824255360 431905 364657 345366 180914
832429409842468480 431155 364186 345130 180927
832429409860681600 430079 363639 344754 180901
832429409878894848 429171 363135 344437 180885
832429409897107968 428666 362900 344274 180942
832429409915321088 428624 362847 344230 180886
832429409933534208 428963 363042 344397 180934
832429409951747328 429472 363307 344563 180931
832429409969960448 429886 363559 344717 180942
832429409988173696 430170 363706 344842 180903
832429410006386816 430495 363799 344941 180882
832429410024599936 430761 363967 345037 180930
832429410042813056 431095 364186 345072 180899
832429410061026176 431537 364438 345264 180898
832429410079239424 431999 364649 345383 180979
832429410097452544 431976 364610 345451 180924
832429410115665664 431582 364442 345340 180956
832429410133878784 430662 363920 344982 180885
832429410152091904 429777 363427 344656 180961
832429410170305024 429038 363067 344414 180943
832429410188518272 428654 362898 344291 180928
832429410206731392 428855 362948 344301 180919
832429410224944512 429198 363214 344484 180925
832429410243157632 429623 363387 344628 180943
832429410261370752 429943 363570 344679 180930
832429410279583872 430237 363693 344823 180956
832429410297797120 430346 363770 344820 180902
832429410316010240 430645 363983 344996 180924
832429410334223320 431156 364237 345131 180917
832429410352433408 431749 364526 345339 180913
832429410370643456 432111 364719 345482 180950
832429410388853632 431992 364691 345456 180939
832429410407063680 431462 364395 345273 180899
832429410425273728 430524 363869 344932 180973
832429410443483904 429571 363370 344624 180948
832429410461693952 428867 363038 344326 180940
832429410479904000 428585 362827 344264 180995
832429410498114176 428780 362970 344276 180958
832429410516324224 429171 363125 344461 180916
832429410534534272 429698 363466 344689 180947
832429410552744448 430017 363622 344833 180901
832429410570954496 430358 363769 344932 180954
832429410589164544 430524 363863 344880 180921
832429410607374720 430901 364103 345047 180910
832429410625584768 431448 364407 345262 180923
832429410643794816 431916 364671 345440 180932
832429410662004992 432094 364746 345501 180902
832429410680215040 431767 364609 345433 180910
832429410698425088 431107 364116 345149 180969
832429410716635264 430136 363708 344835 180969
832429410734845312 429396 363319 344578 180976
832429410753055360 428877 362982 344331 180933
832429410771265536 428780 362979 344340 180920
832429410789475584 429064 363101 344390 180917
832429410807685632 429524 363322 344571 180924
832429410825895808 429925 363615 344707 180905
832429410844105856 430190 363767 344826 180962
832429410862315904 430323 363803 344871 180908
832429410880526080 430491 363938 344910 180961
832429410898736128 430945 364195 345106 180931
832429410916946176 431500 364412 345294 180934
832429410935156352 432110 364759 345502 180981
832429410953366400 432179 364776 345460 181019
832429410971576482 431733 364510 345339 180972
832429410989788288 430979 364135 345087 180986
832429411008000128 430062 363685 344787 180985
832429411026211968 429272 363177 344495 180943
832429411044423808 428774 362948 344296 180978
832429411062635648 428687 362856 344267 180905
832429411080847488 429026 363052 344411 180938
832429411099059328 429533 363303 344605 180920
832429411117271168 429928 363543 344730 180918
832429411135483008 430231 363745 344837 180944
832429411153694848 430495 363877 344908 180935
832429411171906688 430716 363962 344989 180889
832429411190118528 431190 364224 345161 180897
832429411208330240 431827 364576 345349 180905
832429411226542080 432165 364858 345542 180942
832429411244753920 432097 364805 345516 180942
832429411262965760 431415 364415 345269 180989
832429411281177600 430467 363797 344898 180954
832429411299389440 429595 363343 344629 180991
832429411317601280 428959 362990 344390 180909
832429411335813120 428688 362845 344273 180972
832429411354024960 428843 362959 344341 180909
832429411372236800 429186 363130 344460 180982
832429411390448640 429710 363416 344687 180961
832429411408660480 430138 363608 344829 180949
832429411426872320 430391 363772 344924 180923
832429411445084160 430527 363883 344940 180922
832429411463296000 430785 363994 345055 180932
832429411481507840 431268 364273 345198 180949
832429411499719680 431829 364547 345348 180884
832429411517931520 432181 364785 345534 180957
832429411536143360 431920 364634 345436 180958
832429411554355200 431234 364247 345212 180979
832429411572567040 430214 363753 344870 180938
832429411590778880 429387 363278 344483 180940
832429411608990694 428907 362944 344306 180959
832429411627203840 428780 362905 344257 180911
832429411645416960 428971 362957 344380 180882
832429411663630080 429327 363168 344464 180911
832429411681843328 429767 363416 344655 180908
832429411700056448 430152 363612 344771 180950
832429411718269568 430338 363777 344872 180928
832429411736482688 430616 363937 344947 180928
832429411754695808 431015 364106 345113 180952
832429411772908928 431508 364345 345253 180945
832429411791122176 432135 364676 345498 180951
832429411809335296 432216 364780 345475 180932
832429411827548416 431809 364664 345437 181005
832429411845761536 430926 364058 345084 180913
832429411863974656 429765 363442 344621 180904
832429411882187776 429080 363084 344416 180931
832429411900401024 428736 362921 344281 180915
832429411918614144 428783 362927 344273 180940
832429411936827264 429043 363118 344344 180906
832429411955040384 429552 363357 344612 180961
832429411973253504 429982 363644 344801 180982
832429411991466752 430210 363736 344839 180935
832429412009679872 430496 363893 344966 180928
832429412027892992 430733 363966 345059 180951
832429412046106112 431091 364174 345111 180889
832429412064319232 431558 364486 345300 180973
832429412082532352 431962 364672 345440 180941
832429412100745600 432039 364713 345510 180969
832429412118958720 431474 364399 345274 180928
832429412137171840 430650 363897 344941 180949
832429412155384960 429738 363483 344635 180959
832429412173598080 429042 363095 344414 180917
832429412191811200 428771 362917 344319 180934
832429412210024448 428928 363013 344393 180985
832429412228237568 429197 363224 344429 180996
832429412246450680 429612 363418 344631 180919
832429412264663808 429977 363570 344702 180958
832429412282876928 430232 363684 344813 180936
832429412301090048 430508 363874 344940 180904
832429412319303296 430876 364081 345082 180977
832429412337516416 431369 364288 345217 180966
832429412355729536 431900 364564 345406 180958
832429412373942656 432185 364780 345521 180890
832429412392155776 432026 364680 345507 180988
832429412410368896 431340 364348 345245 180945
832429412428582144 430312 363790 344877 180976
832429412446795264 429363 363274 344522 181023
832429412465008384 428794 362996 344325 181009
832429412483221504 428651 362890 344262 180983
832429412501434624 428892 362973 344369 180904
832429412519647744 429492 363286 344526 180976
832429412537860992 429809 363451 344648 180911
832429412556074112 430179 363694 344829 180956
832429412574287232 430386 363804 344930 180913
832429412592500352 430648 363954 344987 180930
832429412610713472 430996 364182 345126 180954
832429412628926720 431428 364427 345246 180950
832429412647139840 431906 364693 345405 180990
832429412665352960 432087 364721 345467 180910
832429412683566080 431723 364558 345380 180961
832429412701779200 430944 364087 345077 180952
832429412719992320 429966 363614 344750 180925
832429412738205568 429246 363203 344485 180930
832429412756418688 428824 362983 344332 180931
832429412774631808 428766 362924 344329 180931
832429412792844928 429093 363101 344466 180985
832429412811058048 429517 363317 344545 180944
832429412829271168 429874 363512 344689 180926
832429412847484416 430111 363660 344822 180982
832429412865697536 430378 363782 344903 180940
832429412883910666 430612 363905 344941 180904
832429412902123776 431076 364168 345135 180935
832429412920336896 431615 364480 345349 180931
832429412938550016 432161 364754 345547 180988
832429412956763264 432110 364755 345484 180945
832429412974976384 431592 364494 345391 180919
832429412993189504 430686 364018 345005 180936
832429413011402624 429703 363461 344604 180913
832429413029615744 428992 363011 344386 180967
832429413047828864 428617 362823 344194 180910
832429413066042112 428773 362903 344330 180969
832429413084255232 429168 363163 344471 180945
832429413102468352 429696 363424 344606 180943
832429413120681472 430089 363661 344835 180954
832429413138894592 430292 363758 344840 180951
832429413157107712 430524 363866 344976 181004
832429413175320960 430880 364067 345057 180972
832429413193534080 431245 364312 345239 180947
832429413211747200 431800 364589 345402 180930
832429413229960320 432061 364720 345498 180916
832429413248173440 431929 364647 345420 180936
832429413266386560 431237 364286 345192 180956
832429413284599808 430384 363809 344940 180982
832429413302812928 429392 363275 344615 180902
832429413321026048 428890 363072 344421 180936
832429413339239168 428790 362938 344321 180893
832429413357452288 428993 363094 344418 180942
832429413375665536 429406 363303 344569 180930
832429413393878656 429779 363517 344659 180981
832429413412091776 430062 363650 344758 180971
832429413430304896 430290 363773 344886 180965
832429413448518016 430522 363928 344955 180991
832429413466731136 430901 364119 345063 181018
832429413484944384 431436 364335 345278 180993
832429413503157504 432008 364685 345462 181016
832429413521370644 432195 364851 345569 180972
832429413539582976 431886 364616 345431 180925
832429413557795328 431093 364203 345120 180949
832429413576007552 430082 363691 344769 180919
832429413594219904 429261 363278 344531 180987
832429413612432128 428648 362915 344259 180961
832429413630644480 428559 362912 344258 180905
832429413648856704 428962 363086 344415 180995
832429413667069056 429429 363218 344551 180988
832429413685281280 429876 363538 344731 180957
832429413703493632 430165 363679 344816 180974
832429413721705984 430429 363770 344888 180971
832429413739918208 430765 363989 344960 180942
832429413758130560 431132 364213 345119 180969
832429413776342784 431614 364407 345288 180916
832429413794555136 432120 364742 345533 181030
832429413812767360 432032 364708 345465 180924
832429413830979712 431457 364396 345264 180932
832429413849191936 430672 363975 344994 180961
832429413867404288 429743 363535 344675 180948
832429413885616512 429068 363108 344432 180962
832429413903828864 428693 362932 344308 181005
832429413922041216 428801 362938 344323 180936
832429413940253440 429218 363201 344461 180981
832429413958465792 429726 363501 344704 181014
832429413976678016 430010 363614 344782 180975
832429413994890368 430304 363827 344888 180957
832429414013102592 430414 363792 344881 180914
832429414031314944 430712 363982 344971 180970
832429414049527168 431091 364187 345164 180892
832429414067739520 431677 364547 345373 180871
832429414085951872 432216 364792 345516 180981
832429414104164096 432120 364818 345489 180978
832429414122376448 431459 364409 345299 180990
832429414140588672 430510 363910 344954 180939
832429414158801024 429631 363386 344656 180979
832429414177013254 428961 363058 344356 180982
832429414195225472 428657 362895 344230 180982
832429414213437696 428878 362987 344352 181016
832429414231650048 429232 363164 344423 180978
832429414249862272 429744 363409 344609 180924
832429414268074496 430101 363577 344696 180921
832429414286286848 430302 363732 344846 180899
832429414304499072 430572 363859 344940 180947
832429414322711424 430970 364138 345103 180934
832429414340923648 431460 364429 345277 180962
832429414359135872 432033 364713 345470 180965
832429414377348224 432155 364832 345568 180972
832429414395560448 431744 364645 345410 180968
832429414413772672 430851 364142 345073 180905
832429414431985024 430049 363621 344750 180908
832429414450197248 429237 363122 344429 180928
832429414468409472 428698 362882 344311 180921
832429414486621824 428756 362949 344364 180970
832429414504834048 429076 363081 344445 180922
832429414523046400 429562 363302 344599 180914
832429414541258624 429980 363550 344672 180942
832429414559470848 430241 363674 344778 180910
832429414577683200 430360 363769 344897 180944
832429414595895424 430569 363902 344989 180953
832429414614107648 430922 364062 345087 180993
832429414632320000 431499 364397 345235 180939
832429414650532224 432001 364660 345453 180977
832429414668744448 432124 364714 345513 180990
832429414686956800 431679 364513 345375 181007
832429414705169024 430797 364003 345090 180991
832429414723381376 429914 363576 344691 180984
832429414741593600 429225 363134 344449 180890
832429414759805824 428716 362929 344292 180879
832429414778018176 428699 362886 344232 180894
832429414796230400 429063 363112 344395 180971
832429414814442722 429503 363311 344615 180989
832429414832655744 429926 363570 344772 180951
832429414850868736 430216 363750 344867 180994
832429414869081856 430404 363800 344943 180894
832429414887294848 430751 364000 345003 180894
832429414905507968 431206 364256 345193 180930
832429414923720960 431821 364542 345314 180958
832429414941934080 432203 364729 345570 180942
832429414960147072 432052 364688 345517 180957
832429414978360192 431372 364342 345237 180923
832429414996573184 430269 363806 344860 180927
832429415014786304 429369 363288 344520 180940
832429415032999296 428839 363029 344341 180953
832429415051212416 428597 362863 344229 180943
832429415069425408 428788 362996 344338 180967
832429415087638528 429218 363209 344441 180940
832429415105851520 429757 363440 344653 181029
832429415124064640 430150 363717 344781 180952
832429415142277632 430424 363808 344861 180892
832429415160490752 430587 363829 344887 180917
832429415178703744 430853 364093 345069 180938
832429415196916864 431264 364268 345167 180916
832429415215129856 431883 364623 345425 180961
832429415233342976 432096 364752 345453 180952
832429415251555968 431950 364619 345364 180972
832429415269769088 431164 364217 345121 180950
832429415287982080 430243 363667 344830 180951
832429415306195200 429409 363263 344555 180965
832429415324408192 428995 363011 344386 180961
832429415342621312 428792 362947 344330 180937
832429415360834304 428988 363072 344415 180979
832429415379047424 429395 363285 344527 181024
832429415397260416 429773 363503 344664 181012
832429415415473536 430047 363656 344750 180961
832429415433686528 430317 363741 344807 180996
832429415451899656 430627 363895 344965 180983
832429415470110464 431050 364120 345112 181020
832429415488321280 431519 364372 345301 180956
832429415506532096 432189 364757 345578 180988
832429415524742784 432275 364794 345556 180990
832429415542953600 431741 364532 345349 180993
832429415561164416 430872 364070 344986 180949
832429415579375232 429784 363514 344681 180920
832429415597585920 428906 362957 344330 180897
832429415615796736 428633 362870 344282 180972
832429415634007552 428715 362932 344313 180953
832429415652218368 429068 363090 344410 180925
832429415670429184 429512 363335 344526 180950
832429415688639872 429927 363570 344715 180977
832429415706850688 430339 363780 344823 180956
832429415725061504 430539 363857 344895 180940
832429415743272320 430733 364059 345033 180935
832429415761483008 431070 364251 345187 180921
832429415779693824 431579 364474 345320 180876
832429415797904640 432034 364672 345478 180915
832429415816115456 432003 364676 345450 180919
832429415834326272 431447 364350 345250 180866
832429415852536960 430590 363885 344973 180952
832429415870747776 429579 363367 344634 180875
832429415888958592 428913 362960 344359 180889
832429415907169408 428769 362885 344343 180962
832429415925380224 428906 362938 344385 180924
832429415943590912 429275 363229 344484 180973
832429415961801728 429638 363416 344589 180954
832429415980012544 429960 363571 344726 180910
832429415998223360 430222 363696 344827 180915
832429416016434048 430448 363814 344899 180860
832429416034644864 430840 364060 345024 180903
832429416052855680 431269 364292 345165 180953
832429416071066496 431910 364566 345420 180947
832429416089277234 432076 364734 345484 180904
832429416107489280 431939 364621 345442 180936
832429416125701376 431211 364246 345198 180986
832429416143913472 430228 363765 344782 180934
832429416162125568 429227 363290 344519 180964
832429416180337664 428600 362861 344231 180917
832429416198549760 428645 362881 344230 180923
832429416216761856 428922 363002 344318 180969
832429416234973952 429275 363209 344423 180887
832429416253186048 429757 363472 344604 180896
832429416271398144 430106 363663 344710 180949
832429416289610240 430421 363781 344818 180930
832429416307822336 430680 363977 344942 180879
832429416326034432 431060 364104 345126 180922
832429416344246528 431566 364425 345262 180958
832429416362458624 431943 364673 345435 180890
832429416380670720 431942 364628 345439 180928
832429416398882816 431603 364349 345285 180896
832429416417094912 430821 363977 345043 180916
832429416435307008 429883 363534 344689 180913
832429416453519104 429138 363135 344444 180955
832429416471731200 428672 362895 344248 180953
832429416489943296 428856 362966 344300 180970
832429416508155392 429188 363146 344423 180894
832429416526367488 429587 363437 344645 180959
832429416544579584 429954 363522 344690 180902
832429416562791680 430162 363640 344748 180904
832429416581003776 430239 363715 344816 180902
832429416599215872 430610 363892 344920 180931
832429416617427968 431088 364130 345086 180928
832429416635640064 431609 364468 345281 180925
832429416653852160 432124 364714 345496 180876
832429416672064256 432062 364608 345482 180882
832429416690276352 431520 364403 345257 180930
832429416708488448 430704 363956 345032 180961
832429416726700600 429745 363449 344672 180948
832429416744913664 428861 363019 344392 180925
