TIMESTAMP PPG0 PPG1 PPG2 AMBIENT
832430358519143680 408182 390247 347286 180952
832430358537325440 408225 390333 347317 180987
832430358555507328 408138 390223 347230 180949
832430358573689088 408105 390281 347241 180939
832430358591870976 408040 390190 347245 180884
832430358610052736 407970 390157 347225 180855
832430358628234624 407977 390146 347231 180917
832430358646416384 407951 390191 347144 180900
832430358664598272 408051 390223 347216 180918
832430358682780032 408143 390199 347253 180937
832430358700961920 408132 390237 347275 180860
832430358719143680 408200 390316 347242 180884
832430358737325440 408224 390298 347295 180955
832430358755507328 408092 390317 347208 180885
832430358773689088 408073 390237 347209 180938
832430358791870976 408028 390162 347209 180968
832430358810052736 407994 390157 347188 180976
832430358828234624 408039 390169 347235 180918
832430358846416384 408122 390228 347266 180905
832430358864598272 408113 390210 347226 180954
832430358882780032 408109 390247 347179 180910
832430358900961920 408141 390267 347191 180920
832430358919143680 408175 390350 347261 180961
832430358937325440 408121 390317 347202 180902
832430358955507328 408124 390290 347233 180918
832430358973689088 408027 390217 347238 180904
832430358991870976 407927 390127 347141 180891
832430359010052736 407914 390169 347160 180908
832430359028234624 408021 390196 347190 180922
832430359046416384 408011 390179 347208 180947
832430359064598272 407984 390203 347199 180952
832430359082780032 408067 390288 347234 180936
832430359100961920 408074 390260 347204 180874
832430359119143680 408166 390331 347195 180905
832430359137325440 408114 390319 347260 180888
832430359155507328 408090 390219 347263 180899
832430359173689088 408009 390209 347212 180896
832430359191870976 407876 390127 347150 180863
832430359210052736 407961 390149 347216 180928
832430359228234624 407962 390153 347137 180882
832430359246416384 407969 390217 347179 180927
832430359264598272 408034 390166 347172 180859
832430359282780032 408100 390175 347217 180911
832430359300961920 408132 390295 347256 180918
832430359319143662 408124 390301 347266 180911
832430359337355776 408112 390291 347262 180937
832430359355567872 408071 390246 347235 180907
832430359373779840 407957 390212 347215 180936
832430359391991936 407882 390148 347170 180871
832430359410204032 407988 390179 347205 180898
832430359428416000 408049 390190 347280 180986
832430359446628096 408047 390225 347198 180956
832430359464840192 408083 390214 347228 180931
832430359483052288 408112 390257 347183 180933
832430359501264256 408217 390281 347279 180934
832430359519476352 408152 390309 347278 180917
832430359537688448 408157 390321 347278 181010
832430359555900416 408118 390295 347270 180957
832430359574112512 408035 390223 347269 180930
832430359592324608 407983 390179 347247 180944
832430359610536576 408003 390154 347228 180941
832430359628748672 408054 390177 347240 180900
832430359646960768 408057 390216 347243 180908
832430359665172736 408066 390231 347189 180937
832430359683384832 408075 390245 347163 180909
832430359701596928 408102 390277 347274 180923
832430359719809024 408079 390253 347172 180934
832430359738020992 408046 390238 347212 180883
832430359756233088 408073 390215 347265 180911
832430359774445184 407956 390195 347191 180887
832430359792657152 407959 390147 347148 180870
832430359810869248 407954 390124 347082 180809
832430359829081344 407973 390146 347134 180863
832430359847293312 407974 390193 347100 180859
832430359865505408 408068 390241 347217 180907
832430359883717504 408057 390200 347207 180848
832430359901929472 408138 390251 347167 180879
832430359920141568 408126 390293 347229 180888
832430359938353664 408034 390209 347190 180924
832430359956565760 408038 390208 347173 180941
832430359974777728 407966 390198 347190 180984
832430359992989824 407965 390149 347194 180940
832430360011201920 407970 390132 347201 180923
832430360029413888 408087 390191 347182 180939
832430360047625984 408083 390179 347259 180916
832430360065838080 408118 390193 347185 180889
832430360084050048 408146 390257 347238 180971
832430360102262144 408180 390338 347290 180978
832430360120474240 408152 390324 347275 180937
832430360138686208 408080 390259 347240 180910
832430360156898304 408020 390207 347168 180923
832430360175110400 407971 390165 347162 180894
832430360193322496 407927 390158 347147 180956
832430360211534464 407978 390205 347177 180926
832430360229746560 408025 390204 347206 180985
832430360247958656 408035 390191 347126 180932
832430360266170602 407998 390165 347120 180902
832430360284383616 408064 390251 347194 180918
832430360302596608 408139 390191 347184 180925
832430360320809600 408153 390271 347231 180897
832430360339022720 408061 390239 347283 180958
832430360357235712 408023 390169 347204 180918
832430360375448704 407983 390178 347275 180947
832430360393661696 408020 390192 347200 180926
832430360411874688 408111 390229 347226 180940
832430360430087680 408150 390232 347171 180871
832430360448300800 408062 390233 347223 180875
832430360466513792 408142 390294 347190 180915
832430360484726784 408375 390501 347378 180856
832430360502939776 408655 390690 347468 180880
832430360521152768 408965 390915 347576 180902
832430360539365888 409022 390908 347608 180905
832430360557578880 409085 391004 347693 180908
832430360575791872 409365 391174 347785 180885
832430360594004864 409842 391530 347957 180910
832430360612217856 410362 391904 348229 180914
832430360630430848 410541 392054 348300 180925
832430360648643968 410246 391813 348174 180942
832430360666856960 409571 391270 347868 180925
832430360685069952 408752 390720 347552 180897
832430360703282944 408012 390141 347208 180908
832430360721495936 407630 389939 347019 180967
832430360739709056 407545 389881 346975 180921
832430360757922048 407765 389944 347079 180916
832430360776135040 408182 390242 347234 180925
832430360794348032 408575 390603 347413 180925
832430360812561024 408708 390768 347481 180877
832430360830774016 408990 390907 347598 180832
832430360848987136 409288 391100 347724 180896
832430360867200128 409646 391399 347949 180905
832430360885413120 410205 391705 348079 180934
832430360903626112 410597 392046 348301 180907
832430360921839154 410498 392039 348297 180897
832430360940050560 409983 391595 348004 180891
832430360958262016 409173 391027 347651 180931
832430360976473344 408368 390427 347296 180871
832430360994684800 407787 390015 347125 180919
832430361012896128 407498 389827 346953 180898
832430361031107584 407621 389846 347020 180923
832430361049318912 407954 390125 347154 180871
832430361067530368 408363 390435 347344 180927
832430361085741696 408716 390682 347461 180893
832430361103953152 409007 390854 347608 180930
832430361122164608 409084 390990 347690 180937
832430361140375936 409273 391127 347752 180872
832430361158587392 409563 391352 347892 180926
832430361176798720 410101 391714 348077 180881
832430361195010176 410504 392003 348257 180910
832430361213221504 410442 391935 348237 180905
832430361231432960 409881 391543 348009 180934
832430361249644288 409029 390941 347571 180886
832430361267855744 408273 390318 347273 180911
832430361286067072 407718 389991 347064 180886
832430361304278528 407609 389836 347028 180903
832430361322489984 407776 389967 347059 180917
832430361340701312 408035 390179 347154 180877
832430361358912768 408361 390417 347337 180927
832430361377124096 408689 390698 347498 180982
832430361395335552 408909 390861 347555 180921
832430361413546880 409169 391047 347655 180908
832430361431758336 409476 391234 347809 180916
832430361449969664 409906 391556 347966 180882
832430361468181120 410464 391945 348242 180904
832430361486392576 410649 392091 348360 180925
832430361504603904 410334 391889 348194 180905
832430361522815360 409639 391393 347901 180886
832430361541026688 408692 390692 347440 180916
832430361559238104 407903 390121 347146 180931
832430361577450240 407533 389790 346973 180907
832430361595662336 407432 389826 346941 180906
832430361613874432 407736 390028 347058 180918
832430361632086528 408131 390322 347270 180935
832430361650298624 408512 390626 347426 180925
832430361668510848 408857 390761 347576 180917
832430361686722944 409026 390928 347680 180913
832430361704935040 409258 391128 347691 180928
832430361723147136 409558 391411 347893 180924
832430361741359232 410015 391613 348024 180922
832430361759571328 410430 391800 348201 180873
832430361777783424 410518 391943 348250 180906
832430361795995520 410120 391700 348051 180904
832430361814207744 409332 391164 347803 180876
832430361832419840 408484 390564 347399 180916
832430361850631936 407793 390028 347104 180923
832430361868844032 407601 389909 347011 180910
832430361887056128 407681 389971 347036 180898
832430361905268224 407973 390135 347115 180905
832430361923480320 408303 390392 347287 180924
832430361941692416 408557 390575 347399 180928
832430361959904640 408766 390728 347497 180934
832430361978116736 409052 390877 347608 180877
832430361996328832 409372 391085 347754 180864
832430362014540928 409705 391422 347906 180945
832430362032753024 410223 391778 348124 180931
832430362050965120 410578 392064 348237 180897
832430362069177216 410521 392064 348247 180879
832430362087389312 409915 391597 347973 180877
832430362105601408 409062 391006 347627 180907
832430362123813632 408231 390312 347249 180901
832430362142025728 407598 389958 347008 180936
832430362160237824 407462 389806 346989 180941
832430362178449920 407654 389935 347127 180900
832430362196662016 408016 390198 347279 180935
832430362214874112 408429 390482 347414 180931
832430362233086226 408770 390732 347585 180994
832430362251297792 408985 390892 347631 180905
832430362269509376 409270 391084 347693 180911
832430362287721088 409564 391301 347847 180860
832430362305932672 409922 391601 348057 180916
832430362324144256 410391 391931 348240 180923
832430362342355840 410501 391972 348242 180910
832430362360567552 410275 391797 348186 180972
832430362378779136 409650 391313 347825 180968
832430362396990720 408769 390768 347522 180911
832430362415202304 408075 390296 347189 180932
832430362433414016 407627 389933 347014 180933
832430362451625600 407608 389931 346977 180906
832430362469837184 407918 390109 347196 181001
832430362488048768 408212 390350 347319 180932
832430362506260480 408584 390581 347409 180863
832430362524472064 408738 390728 347529 180934
832430362542683648 408812 390809 347571 180936
832430362560895232 409090 390955 347712 180956
832430362579106944 409515 391290 347813 180926
832430362597318528 409979 391582 348021 180894
832430362615530112 410443 391962 348242 180859
832430362633741696 410552 391970 348273 180877
832430362651953408 410197 391751 348080 180893
832430362670164992 409491 391238 347826 180940
832430362688376576 408590 390580 347436 180866
832430362706588160 407793 390126 347092 180855
832430362724799872 407408 389789 346929 180885
832430362743011456 407483 389800 346943 180909
832430362761223040 407820 389994 347102 180919
832430362779434624 408297 390316 347299 180913
832430362797646336 408635 390619 347432 180882
832430362815857920 408916 390863 347573 180922
832430362834069504 409020 391038 347622 180945
832430362852281088 409344 391230 347734 180897
832430362870492806 409818 391552 347982 180954
832430362888705920 410214 391795 348137 180959
832430362906919040 410534 392075 348269 180922
832430362925132160 410361 391928 348211 180863
832430362943345408 409846 391553 348033 180957
832430362961558528 409059 390918 347591 180950
832430362979771648 408235 390347 347326 180884
832430362997984768 407770 389936 347062 180941
832430363016197888 407537 389833 346995 180904
832430363034411008 407720 389960 347066 180914
832430363052624256 408063 390226 347190 180893
832430363070837376 408504 390502 347399 180932
832430363089050496 408766 390749 347523 180928
832430363107263616 408902 390816 347561 180911
832430363125476736 408976 390918 347524 180893
832430363143689856 409315 391140 347710 180910
832430363161903104 409763 391441 347931 180882
832430363180116224 410399 391881 348189 180908
832430363198329344 410656 392124 348247 180918
832430363216542464 410429 391918 348206 180891
832430363234755584 409858 391524 347978 180902
832430363252968704 408983 390879 347599 180873
832430363271181952 408180 390308 347302 180896
832430363289395072 407649 389914 347029 180959
832430363307608192 407532 389861 347003 180926
832430363325821312 407596 389914 346997 180927
832430363344034432 408029 390226 347197 180899
832430363362247680 408507 390493 347359 180845
832430363380460800 408785 390737 347513 180911
832430363398673920 409010 390911 347592 180875
832430363416887040 409223 391042 347668 180903
832430363435100160 409633 391355 347837 180914
832430363453313280 410063 391636 348068 180909
832430363471526528 410523 391940 348264 180887
832430363489739648 410569 392060 348302 180937
832430363507952784 410116 391714 348109 180924
832430363526165504 409347 391128 347785 180907
832430363544378240 408522 390546 347380 180925
832430363562590848 407856 390078 347114 180875
832430363580803584 407487 389859 346957 180939
832430363599016192 407555 389868 347006 180930
832430363617228928 407880 390132 347095 180924
832430363635441536 408340 390419 347304 180879
832430363653654272 408724 390750 347525 180903
832430363671866880 408878 390888 347563 180879
832430363690079616 409097 390944 347655 180897
832430363708292224 409288 391077 347780 180896
832430363726504960 409637 391326 347837 180913
832430363744717568 410116 391690 348069 180898
832430363762930304 410507 391990 348279 180942
832430363781142912 410530 391927 348271 180950
832430363799355648 409975 391622 348054 180982
832430363817568384 409178 391055 347712 180934
832430363835780992 408455 390495 347426 180927
832430363853993728 407783 390068 347108 180883
832430363872206336 407496 389863 346990 180927
832430363890419072 407573 389947 346983 180924
832430363908631680 407852 390129 347141 180894
832430363926844416 408347 390366 347315 180972
832430363945057024 408640 390634 347448 180940
832430363963269760 408920 390847 347534 180916
832430363981482368 409143 390999 347622 180948
832430363999695104 409497 391243 347789 180893
832430364017907712 409961 391495 347969 180943
832430364036120448 410446 391948 348222 180934
832430364054333056 410616 392089 348302 180945
832430364072545792 410433 391918 348226 180883
832430364090758528 409712 391453 347934 180879
832430364108971136 408842 390830 347539 180973
832430364127183872 408045 390237 347256 180905
832430364145396480 407578 389857 347026 180940
832430364163609126 407476 389832 347022 180917
832430364181821568 407771 390014 347126 180939
832430364200034048 408157 390296 347225 180918
832430364218246528 408588 390630 347430 180969
832430364236459008 408859 390822 347610 180941
832430364254671488 409008 390899 347632 180938
832430364272883968 409171 390984 347661 180886
832430364291096448 409421 391195 347737 180871
832430364309308928 409854 391457 347918 180965
832430364327521536 410426 391886 348167 180968
832430364345734016 410496 391979 348199 180916
832430364363946496 410168 391688 348109 180944
832430364382158976 409472 391236 347809 180936
832430364400371456 408655 390665 347429 180938
832430364418583936 408032 390213 347221 180896
832430364436796416 407691 389943 347049 180975
832430364455008896 407666 389964 347047 180969
832430364473221376 407910 390087 347099 180952
832430364491433856 408263 390414 347312 181000
832430364509646336 408600 390606 347462 180979
832430364527858816 408846 390797 347578 180928
832430364546071296 408956 390807 347566 180876
832430364564283776 409257 391134 347771 180919
832430364582496256 409733 391393 347946 180948
832430364600708864 410167 391764 348132 180925
832430364618921344 410636 392066 348277 180883
832430364637133824 410592 392064 348291 180907
832430364655346304 410072 391694 348048 180931
832430364673558784 409240 391130 347696 180931
832430364691771264 408309 390405 347343 180886
832430364709983744 407706 390001 347091 180907
832430364728196224 407440 389802 346942 180870
832430364746408704 407562 389914 346959 180931
832430364764621184 407919 390149 347190 180935
832430364782833664 408351 390477 347339 180951
832430364801046224 408717 390709 347505 180909
832430364819257984 409023 390921 347599 180909
832430364837469696 409132 391058 347649 180855
832430364855681280 409375 391288 347770 180893
832430364873892992 409718 391506 347955 180910
832430364892104576 410166 391818 348156 180913
832430364910316288 410491 392007 348316 180933
832430364928528000 410349 391928 348236 180949
832430364946739584 409697 391488 347906 180947
832430364964951296 408891 390912 347618 180916
832430364983162880 408221 390338 347267 180956
832430365001374592 407803 390006 347025 180941
832430365019586304 407609 389892 346987 180936
832430365037797888 407759 389990 347082 180903
832430365056009600 408107 390216 347244 180906
832430365074221184 408367 390448 347330 180938
832430365092432896 408699 390724 347486 180938
832430365110644608 408909 390857 347582 180925
832430365128856192 409158 390977 347699 180893
832430365147067904 409518 391210 347871 180968
832430365165279488 409907 391587 348021 180919
832430365183491200 410475 391986 348224 180935
832430365201702784 410700 392077 348367 180911
832430365219914496 410349 391846 348218 180911
832430365238126208 409602 391354 347861 180911
832430365256337792 408715 390723 347455 180910
832430365274549504 407888 390120 347113 180888
832430365292761088 407428 389786 346937 180876
832430365310972800 407422 389772 346919 180867
832430365329184512 407752 389982 347094 180913
832430365347396096 408188 390306 347266 180921
832430365365607808 408640 390540 347472 180909
832430365383819392 408915 390812 347533 180933
832430365402031104 409118 390975 347649 180899
832430365420242816 409247 391094 347707 180858
832430365438454330 409565 391410 347861 180923
832430365456666752 410021 391646 348064 180860
832430365474879232 410381 391906 348238 180882
832430365493091584 410458 391974 348279 180881
832430365511304064 410007 391619 348062 180888
832430365529516544 409313 391070 347763 180902
832430365547729024 408495 390579 347367 180859
832430365565941376 407841 390063 347046 180882
832430365584153856 407592 389920 347030 180903
832430365602366336 407723 390012 347047 180960
832430365620578816 408006 390241 347245 180936
832430365638791168 408370 390469 347311 180898
832430365657003648 408621 390611 347456 180848
832430365675216128 408825 390770 347592 180913
832430365693428480 409060 390956 347662 180906
832430365711640960 409316 391117 347720 180905
832430365729853440 409717 391399 347902 180925
832430365748065920 410284 391799 348174 180894
832430365766278272 410627 392065 348366 180932
832430365784490752 410516 391916 348223 180854
832430365802703232 409992 391605 348030 180902
832430365820915584 409070 391072 347693 180877
832430365839128064 408265 390404 347294 180944
832430365857340544 407683 390028 347093 180909
832430365875553024 407473 389831 346976 180926
832430365893765376 407660 389947 347013 180952
832430365911977856 408016 390202 347144 180908
832430365930190336 408457 390535 347360 180948
832430365948402816 408785 390773 347549 180902
832430365966615168 409009 390887 347594 180871
832430365984827648 409313 391132 347744 180883
832430366003040128 409690 391359 347877 180953
832430366021252480 410013 391612 348036 180921
832430366039464960 410404 391930 348235 180915
832430366057677440 410577 392071 348327 180905
832430366075889892 410244 391816 348239 180940
832430366094102400 409486 391288 347865 180877
832430366112314880 408681 390716 347420 180926
832430366130527360 407967 390226 347175 180907
832430366148739840 407611 389920 347005 180923
832430366166952320 407583 389914 346995 180945
832430366185164672 407913 390172 347119 180931
832430366203377152 408277 390450 347305 180927
832430366221589632 408572 390704 347481 180950
832430366239802112 408821 390846 347557 180882
832430366258014592 408928 390870 347576 180902
832430366276227072 409162 391039 347652 180832
832430366294439552 409619 391311 347899 180952
832430366312652032 410072 391669 348080 180925
832430366330864384 410516 391991 348248 180959
832430366349076864 410565 392058 348268 180927
832430366367289344 410137 391748 348064 180887
832430366385501824 409437 391187 347747 180847
832430366403714304 408578 390615 347444 180920
832430366421926784 407829 390121 347121 180864
832430366440139264 407514 389818 346997 180888
832430366458351744 407469 389777 347001 180919
832430366476564096 407873 390118 347150 180948
832430366494776576 408283 390378 347312 180984
832430366512989056 408647 390611 347445 180941
832430366531201536 408902 390817 347635 180921
832430366549414016 409039 390940 347629 180902
832430366567626496 409403 391238 347792 180966
832430366585838976 409767 391513 347877 180939
832430366604051456 410294 391840 348171 180910
832430366622263808 410550 392090 348290 180931
832430366640476288 410404 391930 348190 180934
832430366658688768 409803 391502 347953 180884
832430366676901248 408971 390784 347590 180857
832430366695113728 408244 390298 347279 180872
832430366713326208 407746 389949 347034 180885
832430366731538606 407558 389807 346973 180922
832430366749751424 407752 389985 347065 180885
832430366767964288 408187 390178 347243 180933
832430366786177024 408550 390506 347336 180867
832430366804389888 408878 390813 347552 180947
832430366822602624 408955 390911 347620 180955
832430366840815488 409041 391030 347645 180917
832430366859028224 409266 391157 347744 180904
832430366877241088 409764 391508 347963 180918
832430366895453824 410305 391897 348238 180864
832430366913666688 410521 392049 348332 180845
832430366931879424 410357 391943 348243 180915
832430366950092288 409727 391430 347944 180891
832430366968305024 408938 390855 347598 180883
832430366986517888 408160 390366 347278 180891
832430367004730624 407632 389978 347046 180880
832430367022943488 407529 389903 346961 180859
832430367041156224 407703 389982 347065 180944
832430367059369088 408015 390197 347192 180915
832430367077581824 408422 390500 347387 180893
832430367095794688 408737 390680 347550 180952
832430367114007552 408973 390854 347658 180928
832430367132220288 409177 391041 347683 180866
832430367150433152 409598 391238 347882 180838
832430367168645888 410099 391633 348081 180896
832430367186858752 410559 391976 348274 180930
832430367205071488 410634 392069 348375 180920
832430367223284352 410098 391732 348069 180942
832430367241497088 409283 391123 347700 180958
832430367259709952 408479 390465 347346 180919
832430367277922688 407852 390021 347064 180869
832430367296135552 407527 389824 346985 180933
832430367314348288 407621 389866 346970 180941
832430367332561152 407807 390104 347111 180830
832430367350773888 408279 390351 347322 180898
832430367368986752 408689 390634 347472 180841
832430367387199528 408958 390901 347582 180873
832430367405411712 409164 391050 347687 180940
832430367423623936 409233 391128 347689 180863
832430367441836288 409580 391338 347850 180887
832430367460048512 410080 391759 348134 180935
832430367478260736 410527 391984 348231 180876
832430367496473088 410491 391937 348242 180864
832430367514685312 409972 391550 348042 180938
832430367532897664 409132 390992 347691 180903
832430367551109888 408305 390414 347366 180924
832430367569322112 407780 390038 347090 180944
832430367587534464 407564 389895 347062 180911
832430367605746688 407715 389967 347126 180948
832430367623958912 407964 390131 347190 180884
832430367642171264 408286 390375 347341 180910
832430367660383488 408654 390677 347521 180933
832430367678595712 408909 390838 347654 180899
832430367696808064 409094 390962 347685 180911
832430367715020288 409415 391164 347837 180838
832430367733232640 409835 391493 348025 180933
832430367751444864 410415 391918 348259 180885
832430367769657088 410750 392201 348460 180953
832430367787869440 410506 391996 348309 180972
832430367806081664 409747 391491 347978 180888
832430367824293888 408857 390767 347622 180879
832430367842506240 408050 390176 347212 180911
832430367860718464 407585 389888 346991 180915
832430367878930688 407521 389809 346969 180952
832430367897143040 407708 389997 347054 180945
832430367915355264 408083 390258 347249 180926
832430367933567616 408431 390467 347366 180871
832430367951779840 408808 390788 347503 180909
832430367969992064 408981 390939 347607 180876
832430367988204416 409230 391000 347724 180866
832430368006416640 409529 391291 347855 180904
832430368024628996 409938 391521 347955 180909
832430368042841344 410338 391817 348153 180870
832430368061053696 410510 391983 348245 180938
832430368079266048 410142 391734 348061 180914
832430368097478400 409441 391220 347775 180927
832430368115690752 408585 390665 347479 180916
832430368133903104 407941 390087 347136 180864
832430368152115456 407619 389966 347081 180926
832430368170327808 407680 389957 347061 180911
832430368188540160 407935 390146 347132 180918
832430368206752512 408207 390335 347260 180943
832430368224964864 408488 390526 347339 180922
832430368243177216 408778 390760 347524 180927
832430368261389696 408941 390859 347577 180882
832430368279602048 409207 391047 347717 180940
832430368297814400 409710 391407 347845 180892
832430368316026752 410212 391770 348092 180871
832430368334239104 410581 392036 348303 180924
832430368352451456 410616 391985 348251 180881
832430368370663808 410137 391688 348099 180887
832430368388876160 409233 391090 347736 180868
832430368407088512 408330 390403 347316 180860
832430368425300864 407581 389859 346991 180886
832430368443513216 407399 389699 346900 180914
832430368461725568 407544 389778 346991 180851
832430368479937920 407994 390118 347194 180902
832430368498150272 408380 390461 347336 180836
832430368516362624 408689 390669 347432 180883
832430368534574976 409019 390847 347591 180939
832430368552787328 409238 391029 347652 180889
832430368570999680 409524 391272 347775 180923
832430368589212032 409843 391460 347962 180888
832430368607424384 410297 391810 348132 180897
832430368625636736 410401 391961 348253 180842
832430368643849088 410265 391790 348127 180887
832430368662061506 409695 391420 347918 180816
832430368680274048 408877 390796 347537 180866
832430368698486528 408145 390297 347232 180894
832430368716699008 407612 389924 346943 180874
832430368734911488 407556 389854 346993 180892
832430368753123968 407748 389995 347058 180943
832430368771336448 408142 390291 347217 180976
832430368789548928 408486 390488 347381 180939
832430368807761408 408746 390676 347475 180926
832430368825974016 408864 390780 347536 180904
832430368844186496 409134 390977 347651 180920
832430368862398976 409500 391267 347797 180954
832430368880611456 410006 391606 348072 180941
832430368898823936 410459 391955 348270 180930
832430368917036416 410624 392014 348370 180926
832430368935248896 410331 391876 348215 180915
832430368953461376 409613 391346 347871 180874
832430368971673856 408756 390753 347494 180850
832430368989886336 407977 390170 347158 180902
832430369008098816 407455 389838 346940 180854
832430369026311296 407438 389735 346945 180903
832430369044523776 407833 390037 347116 180892
832430369062736256 408228 390344 347253 180925
832430369080948736 408660 390602 347439 180902
832430369099161344 408892 390827 347524 180904
832430369117373824 409115 390961 347593 180935
832430369135586304 409333 391144 347750 180885
832430369153798784 409685 391428 347967 180974
832430369172011264 410189 391823 348180 180988
832430369190223744 410528 392017 348334 180934
832430369208436224 410389 391954 348248 180942
832430369226648704 409988 391629 348061 180970
832430369244861184 409231 391048 347644 180948
832430369263073664 408506 390550 347396 180954
832430369281286144 407854 390034 347134 180907
832430369299498604 407662 389937 347007 180932
832430369317711488 407640 389907 347008 180930
832430369335924352 408021 390171 347150 180909
832430369354137216 408396 390461 347316 180932
832430369372349952 408711 390684 347482 180930
832430369390562816 408913 390842 347554 180902
832430369408775680 409014 390902 347614 180887
832430369426988544 409338 391172 347786 180885
832430369445201408 409769 391451 347940 180900
832430369463414144 410280 391829 348153 180897
832430369481627008 410634 392058 348355 180924
832430369499839872 410470 391919 348212 180867
832430369518052736 409912 391490 348004 180880
832430369536265472 409107 390890 347702 180914
832430369554478336 408241 390244 347269 180882
832430369572691200 407609 389857 347001 180876
832430369590904064 407463 389765 346924 180918
832430369609116928 407571 389848 347024 180957
832430369627329664 407953 390135 347246 180942
832430369645542528 408351 390438 347372 180918
832430369663755392 408692 390703 347501 180843
832430369681968256 408940 390940 347653 180886
832430369700181120 409224 391061 347708 180884
832430369718393856 409580 391376 347887 180934
832430369736606720 409941 391610 348063 180921
832430369754819584 410442 391967 348275 180848
832430369773032448 410548 391982 348345 180893
832430369791245312 410209 391777 348191 180905
832430369809458048 409423 391229 347810 180921
832430369827670912 408619 390597 347422 180856
832430369845883776 407964 390145 347207 180928
832430369864096640 407589 389849 346969 180851
832430369882309504 407619 389844 346978 180868
832430369900522240 407847 390036 347081 180896
832430369918735104 408301 390346 347274 180876
832430369936947910 408631 390624 347393 180915
832430369955160192 408876 390810 347523 180863
832430369973372416 409039 390876 347567 180880
832430369991584768 409242 391033 347652 180921
832430370009796992 409477 391222 347764 180852
832430370028009216 409994 391594 348020 180835
832430370046221568 410503 392019 348263 180900
832430370064433792 410499 391997 348211 180882
832430370082646144 410025 391650 348038 180932
832430370100858368 409257 391118 347692 180890
832430370119070592 408432 390531 347372 180880
832430370137282944 407863 390028 347144 180914
832430370155495168 407539 389868 347022 180837
832430370173707392 407531 389886 346979 180908
832430370191919744 407787 390053 347058 180875
832430370210131968 408195 390358 347233 180901
832430370228344192 408553 390612 347431 180890
832430370246556544 408822 390766 347557 180911
832430370264768768 409040 390944 347677 180875
832430370282981120 409385 391221 347755 180891
832430370301193344 409770 391469 347949 180913
832430370319405568 410323 391841 348186 180897
832430370337617920 410627 392063 348302 180935
832430370355830144 410431 391925 348180 180886
832430370374042368 409799 391490 347999 180932
832430370392254720 408829 390784 347517 180871
832430370410466944 408073 390232 347177 180907
832430370428679168 407566 389887 346950 180858
832430370446891520 407480 389819 346906 180867
832430370465103744 407691 389932 347040 180915
832430370483316096 408023 390236 347147 180892
832430370501528320 408501 390516 347416 180913
832430370519740544 408778 390785 347555 180866
832430370537952896 408931 390895 347559 180866
832430370556165120 409086 391007 347667 180882
832430370574377378 409360 391162 347773 180869
832430370592590464 409809 391545 347925 180860
832430370610803584 410282 391901 348098 180843
832430370629016704 410561 392110 348268 180876
832430370647229952 410327 391801 348150 180922
832430370665443072 409704 391392 347897 180908
832430370683656192 408787 390784 347518 180919
832430370701869312 408113 390302 347248 180922
832430370720082432 407695 389973 347039 180957
832430370738295552 407635 389861 346970 180896
832430370756508800 407903 390040 347093 180961
832430370774721920 408190 390178 347243 180945
832430370792935040 408516 390478 347398 180965
832430370811148160 408755 390722 347491 180955
832430370829361280 408996 390901 347655 180942
832430370847574400 409238 391055 347721 180858
832430370865787648 409626 391313 347910 180870
832430370884000768 410154 391731 348052 180817
832430370902213888 410569 392107 348286 180879
832430370920427008 410527 392075 348292 180880
832430370938640128 410159 391767 348132 180882
832430370956853248 409384 391154 347817 180893
832430370975066496 408505 390540 347377 180916
832430370993279616 407821 390045 347057 180909
832430371011492736 407427 389767 346892 180885
832430371029705856 407563 389920 346975 180896
832430371047918976 407940 390146 347133 180909
832430371066132224 408360 390412 347320 180936
832430371084345344 408708 390689 347481 180907
832430371102558464 409066 390901 347597 180923
832430371120771584 409220 390999 347654 180940
832430371138984704 409272 391175 347747 180909
832430371157197824 409642 391354 347944 180906
832430371175411072 410140 391726 348119 180941
832430371193624192 410495 391974 348238 180875
832430371211837356 410510 391933 348229 180930
832430371230049664 409974 391562 348007 180923
832430371248262016 409125 390982 347648 180930
832430371266474240 408276 390380 347305 180875
832430371284686592 407903 390024 347114 180891
832430371302898816 407630 389895 346989 180859
832430371321111168 407752 389985 347077 180857
832430371339323392 408085 390243 347190 180913
832430371357535744 408417 390466 347329 180918
832430371375747968 408567 390622 347422 180890
832430371393960320 408804 390775 347595 180881
832430371412172672 409098 390965 347713 180881
832430371430384896 409458 391191 347779 180870
832430371448597248 409877 391530 347992 180927
832430371466809472 410463 391942 348238 180949
832430371485021824 410735 392114 348309 180932
832430371503234048 410382 391961 348248 180911
832430371521446400 409692 391438 347934 180902
832430371539658624 408904 390793 347598 180907
832430371557870976 408025 390163 347170 180905
832430371576083200 407523 389809 346977 180922
832430371594295552 407494 389753 346988 180935
832430371612507904 407688 389992 347071 180934
832430371630720128 408183 390281 347238 180906
832430371648932480 408515 390590 347431 180851
832430371667144704 408809 390711 347607 180891
832430371685357056 409147 390980 347655 180883
832430371703569280 409411 391136 347759 180927
832430371721781632 409614 391365 347912 180880
832430371739993856 410009 391639 348054 180915
832430371758206208 410349 391877 348204 180897
832430371776418560 410521 392008 348236 180905
832430371794630784 410122 391721 348082 180931
832430371812843136 409385 391252 347779 180918
832430371831055360 408549 390653 347460 180923
832430371849267712 407862 390087 347189 180874
832430371867479966 407514 389827 347041 180893
832430371885691776 407645 389905 347019 180853
832430371903903616 407939 390082 347139 180884
832430371922115584 408294 390397 347291 180903
832430371940327424 408545 390536 347402 180902
832430371958539264 408710 390675 347513 180881
832430371976751104 408932 390864 347670 180899
832430371994963072 409220 391043 347714 180886
832430372013174912 409657 391343 347862 180896
832430372031386752 410090 391687 348081 180874
832430372049598720 410495 391976 348199 180876
832430372067810560 410448 391956 348191 180885
832430372086022400 410011 391640 348072 180855
832430372104234368 409227 391070 347726 180888
832430372122446208 408342 390430 347328 180931
832430372140658048 407694 389977 347078 180883
832430372158869888 407370 389724 346921 180893
832430372177081856 407607 389897 347023 180886
832430372195293696 407933 390130 347126 180870
832430372213505536 408387 390416 347354 180876
832430372231717504 408727 390659 347469 180894
832430372249929344 409023 390920 347614 180972
832430372268141184 409235 391033 347667 180880
832430372286353152 409511 391303 347743 180880
832430372304564992 409905 391577 347949 180931
832430372322776832 410384 391874 348183 180892
832430372340988672 410567 391989 348260 180890
832430372359200640 410253 391782 348135 180918
832430372377412480 409674 391339 347874 180902
832430372395624320 408868 390786 347564 180867
832430372413836288 408088 390241 347249 180896
832430372432048128 407645 389941 347018 180910
832430372450259968 407564 389788 346960 180856
832430372468471936 407829 390072 347080 180918
832430372486683776 408262 390323 347259 180890
832430372504895700 408606 390613 347419 180939
832430372523107328 408779 390774 347552 180887
832430372541318912 408930 390812 347566 180873
832430372559530624 409154 391011 347707 180960
832430372577742208 409492 391255 347792 180906
832430372595953792 410015 391627 348034 180906
832430372614165376 410534 391995 348367 181004
832430372632377088 410598 392045 348341 180884
832430372650588672 410262 391810 348189 180911
832430372668800256 409617 391383 347944 180945
832430372687011840 408743 390712 347491 180891
832430372705223552 407979 390185 347205 180903
832430372723435136 407515 389870 347044 180923
832430372741646720 407484 389849 346971 180951
832430372759858304 407808 389987 347089 180902
832430372778070016 408308 390342 347297 180896
832430372796281600 408607 390611 347457 180859
832430372814493184 408913 390867 347555 180881
832430372832704768 409054 390902 347571 180898
832430372850916480 409310 391080 347803 180911
832430372869128064 409746 391430 347926 180885
832430372887339648 410227 391750 348118 180889
832430372905551232 410546 392056 348265 180920
832430372923762944 410504 392031 348274 180885
832430372941974528 409893 391585 348011 180869
832430372960186112 409202 391050 347652 180891
832430372978397696 408348 390463 347324 180871
832430372996609408 407766 390026 347077 180897
832430373014820992 407566 389805 346998 180887
832430373033032576 407738 389938 347010 180925
832430373051244160 408013 390213 347192 180866
832430373069455872 408470 390545 347419 180894
832430373087667456 408769 390727 347530 180907
832430373105879040 408988 390841 347595 180889
832430373124090624 409105 390964 347682 180944
832430373142302336 409221 391163 347811 180876
832430373160513896 409702 391459 347948 180838
832430373178725504 410225 391894 348160 180835
832430373196937088 410562 392051 348305 180897
832430373215148800 410394 391932 348229 180890
832430373233360384 409884 391542 347996 180928
832430373251571968 409043 390950 347639 180914
832430373269783552 408264 390414 347345 180913
832430373287995264 407735 390009 347056 180925
832430373306206848 407529 389870 346970 180955
832430373324418432 407655 389956 347053 180938
832430373342630016 408017 390205 347233 180961
832430373360841728 408485 390518 347383 180920
832430373379053312 408776 390731 347544 180951
832430373397264896 408995 390940 347640 180893
832430373415476480 409230 391123 347690 180896
832430373433688192 409544 391323 347823 180864
832430373451899776 410047 391714 348090 180957
832430373470111360 410530 392067 348333 180922
832430373488322944 410649 392089 348350 180903
832430373506534656 410294 391836 348163 180924
832430373524746240 409459 391248 347836 180944
832430373542957824 408563 390570 347445 180909
832430373561169408 407874 390082 347134 180843
832430373579381120 407584 389869 346996 180899
832430373597592704 407603 389876 346983 180893
832430373615804288 407888 390034 347128 180885
832430373634015872 408280 390372 347267 180906
832430373652227584 408694 390611 347462 180931
832430373670439168 409010 390925 347628 180990
832430373688650752 409134 391004 347565 180898
832430373706862336 409300 391162 347738 180886
832430373725074048 409590 391332 347884 180919
832430373743285632 410003 391647 348061 180830
832430373761497216 410475 392015 348263 180872
832430373779708800 410485 391982 348236 180847
832430373797920476 410043 391636 348042 180886
832430373816132352 409314 391067 347750 180870
832430373834344192 408496 390482 347402 180854
832430373852555904 407835 390096 347128 180871
832430373870767744 407556 389922 347029 180858
832430373888979456 407586 389949 347055 180910
832430373907191296 407867 390103 347158 180939
832430373925403008 408227 390378 347303 180933
832430373943614848 408551 390573 347423 180898
832430373961826688 408888 390800 347600 180990
832430373980038400 409079 390999 347699 180941
832430373998250240 409416 391187 347827 180939
832430374016461952 409821 391505 348003 180937
832430374034673792 410350 391897 348188 180838
832430374052885504 410707 392121 348362 180922
832430374071097344 410538 391973 348248 180952
832430374089309184 409892 391540 347970 180987
832430374107520896 409002 390864 347522 180938
832430374125732736 408160 390262 347202 180925
832430374143944448 407635 389848 347051 180959
832430374162156288 407479 389814 346975 180926
832430374180368128 407681 389970 347035 180914
832430374198579840 408110 390265 347277 180922
832430374216791680 408493 390535 347352 180890
832430374235003392 408848 390788 347536 180910
832430374253215232 409067 390939 347637 180971
832430374271426944 409242 391111 347693 180925
832430374289638784 409514 391319 347778 180923
832430374307850624 409910 391616 348002 180896
832430374326062336 410330 391854 348165 180867
832430374344274176 410547 391997 348281 180955
832430374362485888 410241 391734 348160 180955
832430374380697728 409621 391253 347876 180909
832430374398909440 408774 390669 347491 180894
832430374417121280 408072 390175 347216 180925
832430374435333120 407633 389905 347044 180894
832430374453544764 407667 389927 347060 180950
832430374471754752 407915 390111 347158 180935
832430374489964800 408220 390323 347222 180841
832430374508174976 408566 390570 347431 180918
832430374526385024 408768 390768 347569 180877
832430374544595072 408889 390889 347586 180933
832430374562805248 409240 391059 347721 180893
832430374581015296 409605 391302 347910 180857
832430374599225344 410071 391695 348136 180848
832430374617435520 410561 392025 348247 180845
832430374635645568 410663 392115 348390 180899
832430374653855616 410180 391761 348069 180863
832430374672065792 409389 391198 347757 180872
832430374690275840 408494 390533 347444 180911
832430374708485888 407769 390054 347099 180881
832430374726696064 407535 389818 346995 180914
832430374744906112 407598 389816 347020 180892
832430374763116160 407916 390085 347148 180908
832430374781326336 408359 390404 347341 180957
832430374799536384 408685 390710 347477 180909
832430374817746432 408904 390869 347585 180947
832430374835956608 409144 391051 347692 180932
832430374854166656 409459 391254 347797 180918
832430374872376704 409833 391514 347972 180938
832430374890586880 410234 391853 348170 180864
832430374908796928 410512 392018 348272 180872
832430374927006976 410358 391859 348250 180894
832430374945217152 409889 391525 348033 180956
832430374963427200 409040 390956 347649 180914
832430374981637248 408279 390392 347349 180938
832430374999847424 407821 390031 347090 180933
832430375018057472 407669 389906 347031 180954
832430375036267520 407884 390025 347134 180917
832430375054477696 408143 390258 347268 180877
832430375072687744 408514 390489 347468 180894
832430375090897938 408798 390722 347535 180952
832430375109109120 408866 390846 347564 180950
832430375127320320 409054 391028 347690 180934
832430375145531648 409417 391255 347782 180892
832430375163742848 409970 391598 348025 180991
832430375181954048 410424 391915 348258 180872
832430375200165248 410682 392086 348315 180923
832430375218376576 410442 391918 348149 180917
832430375236587776 409774 391459 347928 180928
832430375254798976 408860 390816 347486 180924
832430375273010176 408079 390225 347159 180935
832430375291221504 407532 389775 346961 180910
832430375309432704 407498 389773 346955 180981
832430375327643904 407748 389960 347079 180921
832430375345855232 408175 390299 347277 180951
832430375364066432 408551 390601 347453 180960
832430375382277632 408908 390805 347607 180921
832430375400488832 409056 390962 347638 180920
832430375418700160 409390 391133 347754 180846
832430375436911360 409645 391338 347845 180858
832430375455122560 410086 391709 348079 180862
832430375473333760 410487 391990 348238 180862
832430375491545088 410510 392016 348302 180890
832430375509756288 410124 391656 348120 180977
832430375527967488 409451 391120 347763 180966
832430375546178816 408547 390550 347465 180964
832430375564390016 407919 390149 347165 180941
832430375582601216 407658 389891 347048 180869
832430375600812416 407695 389967 347011 180937
832430375619023744 407995 390229 347160 180925
832430375637234944 408324 390416 347293 180859
832430375655446144 408670 390673 347509 180907
832430375673657472 408897 390862 347611 180970
832430375691868672 409046 390889 347604 180919
832430375710079872 409347 391023 347707 180930
832430375728291072 409758 391369 347915 180947
832430375746502402 410244 391709 348098 180901
832430375764713984 410516 392000 348301 180867
832430375782925568 410497 392020 348296 180905
832430375801137024 410029 391581 348078 180843
832430375819348608 409182 391064 347687 180862
832430375837560064 408327 390456 347364 180901
832430375855771648 407736 390074 347108 180913
832430375873983104 407508 389832 347004 180921
832430375892194688 407623 389918 347017 180940
832430375910406272 407957 390162 347209 180936
832430375928617728 408404 390490 347309 180919
832430375946829312 408713 390753 347507 180904
832430375965040768 408936 390909 347573 180906
832430375983252352 409167 391006 347656 180925
832430376001463808 409563 391278 347851 180972
832430376019675392 409949 391580 348090 180961
832430376037886976 410447 391984 348313 180952
832430376056098432 410664 392022 348362 180935
832430376074310016 410308 391858 348201 180901
832430376092521472 409582 391396 347866 180916
832430376110733056 408796 390787 347520 180945
832430376128944512 408027 390209 347231 180901
832430376147156096 407627 389892 347076 180930
832430376165367680 407624 389923 347015 180891
832430376183579136 407855 390069 347153 180882
832430376201790720 408303 390410 347361 180943
832430376220002176 408609 390657 347450 180986
832430376238213760 408881 390877 347559 180949
832430376256425216 408996 390905 347608 180885
832430376274636800 409124 391021 347667 180937
832430376292848384 409399 391210 347785 180955
832430376311059840 409922 391525 348061 180957
832430376329271424 410468 392004 348308 180943
832430376347482880 410661 392074 348390 180939
832430376365694464 410278 391773 348216 180994
832430376383905930 409441 391239 347855 180883
832430376402116736 408659 390606 347480 180874
832430376420327552 408000 390174 347229 180932
832430376438538368 407619 389915 347091 180919
832430376456749184 407677 389902 347091 180887
832430376474960000 407884 390124 347139 180893
832430376493170944 408257 390334 347315 180920
832430376511381760 408569 390614 347434 180889
832430376529592576 408844 390732 347514 180889
832430376547803392 409000 390927 347623 180881
832430376566014208 409303 391103 347778 180859
832430376584225024 409796 391394 347982 180964
832430376602435840 410289 391812 348140 180942
832430376620646656 410595 392062 348301 180942
832430376638857600 410529 391983 348239 180903
832430376657068416 409961 391604 348030 180951
832430376675279232 409085 390978 347727 180914
832430376693490048 408296 390407 347358 180976
832430376711700864 407715 390040 347074 181002
832430376729911680 407510 389871 346966 180930
832430376748122496 407676 389943 347074 180890
832430376766333312 408046 390247 347158 180860
832430376784544256 408488 390548 347364 180888
832430376802755072 408809 390753 347520 180936
832430376820965888 409022 390919 347614 180913
832430376839176704 409154 391077 347652 180945
832430376857387520 409365 391234 347826 180902
832430376875598336 409742 391470 347969 180953
832430376893809152 410329 391814 348172 180947
832430376912019968 410604 392045 348288 180900
832430376930230912 410395 391866 348215 180916
832430376948441728 409798 391475 347970 180944
832430376966652544 408896 390841 347619 180947
832430376984863360 408251 390348 347339 180945
832430377003074176 407799 389986 347130 180957
832430377021285034 407614 389927 347035 180886
832430377039495552 407747 390043 347071 180925
832430377057706112 408109 390214 347210 180913
832430377075916672 408378 390489 347294 180901
832430377094127232 408730 390733 347475 180951
832430377112337792 408974 390876 347616 180954
832430377130548352 409210 391056 347691 180939
832430377148758912 409622 391330 347864 180978
832430377166969600 410082 391677 348078 180924
832430377185180160 410569 392067 348301 180892
832430377203390720 410678 392148 348360 180909
832430377221601280 410258 391850 348195 180950
832430377239811840 409556 391307 347876 180885
832430377258022400 408648 390630 347481 180906
832430377276232960 407898 390134 347160 180926
832430377294443520 407565 389896 346991 180942
832430377312654080 407597 389792 347018 180904
832430377330864640 407858 389990 347120 180898
832430377349075200 408243 390356 347332 180876
832430377367285760 408629 390641 347515 180894
832430377385496448 408999 390880 347627 180921
832430377403707008 409167 390975 347669 180939
832430377421917568 409303 391098 347771 180901
832430377440128128 409654 391303 347880 180868
832430377458338688 410124 391681 348109 180955
832430377476549248 410510 391952 348248 180934
832430377494759808 410499 392021 348277 180879
832430377512970368 410085 391661 348107 180904
832430377531180928 409244 391045 347699 180903
832430377549391488 408402 390472 347330 180851
832430377567602048 407915 390127 347117 180948
832430377585812608 407729 390003 347057 180886
832430377604023168 407738 389990 347034 180869
832430377622233856 408071 390259 347236 180924
832430377640444416 408356 390468 347355 180917
832430377658654990 408551 390624 347460 180890
832430377676865536 408837 390788 347560 180896
832430377695076096 409079 390924 347649 180932
832430377713286784 409432 391144 347757 180919
832430377731497344 409778 391444 347957 180916
832430377749708032 410330 391795 348173 180904
832430377767918592 410588 392086 348303 180951
832430377786129280 410497 392068 348240 180969
832430377804339840 409864 391598 347970 180961
832430377822550400 408992 390892 347606 180909
832430377840761088 408137 390288 347231 180924
832430377858971648 407582 389864 346985 180896
832430377877182336 407481 389737 346943 180896
832430377895392896 407703 389909 347076 180941
832430377913603456 408098 390179 347261 180859
832430377931814144 408498 390509 347400 180893
832430377950024704 408793 390759 347441 180902
832430377968235392 409074 390965 347643 180903
832430377986445952 409274 391065 347737 180887
832430378004656640 409558 391370 347931 180937
832430378022867200 409977 391656 348111 180939
832430378041077760 410397 391904 348221 180926
832430378059288448 410469 391999 348217 180864
832430378077499008 410186 391785 348186 180900
832430378095709696 409526 391270 347849 180903
832430378113920256 408690 390666 347429 180977
832430378132130944 407952 390174 347148 180897
832430378150341504 407594 389904 347007 180913
832430378168552064 407720 389959 347057 180953
832430378186762752 407995 390152 347177 180976
832430378204973312 408268 390427 347333 180947
832430378223184000 408613 390654 347435 180928
832430378241394560 408865 390846 347598 180983
832430378259605120 408973 390863 347638 180943
832430378277815808 409217 391091 347736 180921
832430378296026476 409577 391364 347891 180986
832430378314237568 410121 391744 348115 180949
832430378332448640 410547 392031 348319 180905
832430378350659712 410562 392033 348307 180914
832430378368870656 410103 391732 348116 180900
832430378387081728 409394 391150 347788 180899
832430378405292800 408603 390544 347455 180924
832430378423503872 407873 390052 347094 180920
832430378441714944 407407 389738 346890 180894
832430378459926016 407579 389919 347002 180923
832430378478136960 407922 390171 347166 180924
832430378496348032 408359 390460 347336 180961
832430378514559104 408704 390569 347404 180881
832430378532770176 408908 390831 347576 180924
832430378550981248 409005 390975 347667 180855
832430378569192320 409425 391186 347763 180917
832430378587403264 409905 391555 347997 180941
832430378605614336 410316 391888 348144 180867
832430378623825408 410525 391986 348271 180872
832430378642036480 410299 391821 348205 180886
832430378660247552 409740 391443 348003 180923
832430378678458624 408998 390858 347649 180942
832430378696669568 408206 390385 347262 180937
832430378714880640 407681 390005 347056 180875
832430378733091712 407584 389793 346965 180862
832430378751302784 407786 389999 347053 180873
832430378769513856 408138 390325 347301 180918
832430378787724800 408472 390573 347477 180899
832430378805935872 408712 390670 347454 180873
832430378824146944 408822 390782 347560 180939
832430378842358016 409000 390949 347653 180901
832430378860569088 409371 391167 347788 180880
832430378878780160 409910 391558 347950 180922
832430378896991104 410520 391930 348200 180957
832430378915202176 410628 392098 348266 180907
832430378933413220 410328 391901 348179 180887
832430378951624832 409730 391411 347938 180932
832430378969836416 408846 390767 347547 180936
832430378988048128 408081 390209 347225 180885
832430379006259712 407674 389931 347037 180939
832430379024471296 407496 389837 346973 180900
832430379042682880 407649 389941 347071 180892
832430379060894592 408127 390251 347281 180887
832430379079106176 408551 390535 347413 180899
832430379097317760 408862 390813 347521 180942
832430379115529344 409060 390925 347651 180928
832430379133741056 409237 391109 347721 180947
832430379151952640 409682 391417 347916 180947
832430379170164224 410121 391810 348082 180885
832430379188375808 410593 392101 348302 180914
832430379206587520 410531 391983 348237 180866
832430379224799104 410028 391671 348064 180913
832430379243010688 409288 391047 347689 180902
832430379261222272 408486 390503 347361 180924
832430379279433984 407818 390028 347113 180905
832430379297645568 407513 389859 347034 180954
832430379315857152 407618 389909 347040 180968
832430379334068736 407899 390152 347133 180938
832430379352280448 408381 390541 347337 180954
832430379370492032 408759 390809 347484 180962
832430379388703616 408985 390919 347616 180958
832430379406915200 409067 391012 347657 180898
832430379425126912 409363 391178 347807 180994
832430379443338496 409627 391314 347785 180891
832430379461550080 410235 391747 348118 180823
832430379479761664 410639 392038 348286 180869
832430379497973376 410508 391963 348271 180880
832430379516184960 409973 391596 348085 180902
832430379534396544 409134 391016 347722 180880
832430379552608128 408410 390444 347377 180872
832430379570819790 407823 390023 347138 180900
832430379589031424 407590 389873 347094 180919
832430379607243008 407674 389923 347096 180927
832430379625454720 407891 390070 347182 180841
832430379643666304 408331 390448 347390 180904
832430379661877888 408673 390712 347522 180944
832430379680089472 408971 390841 347601 180954
832430379698301184 409143 391006 347739 180875
832430379716512768 409444 391197 347819 180873
832430379734724352 409949 391507 347972 180873
832430379752935936 410531 391977 348234 180892
832430379771147648 410705 392162 348359 180911
832430379789359232 410377 391899 348184 180924
832430379807570816 409608 391341 347866 180907
832430379825782400 408685 390684 347435 180847
832430379843994112 407972 390152 347093 180866
832430379862205696 407583 389830 346971 180876
832430379880417280 407540 389891 346969 180879
832430379898628864 407832 390050 347075 180887
832430379916840576 408149 390310 347192 180910
832430379935052160 408538 390570 347390 180913
832430379953263744 408855 390811 347576 180899
832430379971475328 409042 390913 347658 180897
832430379989687040 409224 391083 347751 180886
832430380007898624 409504 391332 347862 180930
832430380026110208 409864 391554 347952 180901
832430380044321792 410389 391898 348204 180888
832430380062533504 410537 391990 348289 180909
832430380080745088 410109 391703 348140 180920
832430380098956672 409359 391193 347802 180931
832430380117168256 408536 390553 347444 180911
832430380135379968 407867 390043 347164 180850
832430380153591552 407616 389858 347097 180950
832430380171803136 407627 389966 347055 180931
832430380190014720 407851 390145 347141 180924
832430380208226370 408200 390395 347261 180906
832430380226437248 408530 390545 347369 180870
832430380244648064 408798 390672 347452 180922
832430380262858752 409015 390892 347586 180908
832430380281069568 409276 391092 347673 180881
832430380299280384 409654 391371 347891 180931
832430380317491072 410146 391692 348031 180828
832430380335701888 410502 392023 348170 180885
832430380353912576 410512 392071 348235 180927
832430380372123392 409970 391693 348038 180953
832430380390334208 409139 391012 347637 180869
832430380408544896 408218 390342 347281 180855
832430380426755712 407565 389935 347009 180857
832430380444966528 407472 389762 346980 180927
832430380463177216 407606 389863 347062 180848
832430380481388032 408001 390156 347179 180879
832430380499598720 408414 390429 347348 180846
832430380517809536 408707 390632 347479 180890
832430380536020352 408945 390855 347568 180881
832430380554231040 409209 391049 347684 180900
832430380572441856 409427 391304 347823 180857
832430380590652672 409767 391579 347972 180848
832430380608863360 410226 391835 348167 180859
832430380627074176 410431 391980 348250 180808
832430380645284992 410306 391852 348168 180824
832430380663495680 409638 391420 347957 180904
832430380681706496 408828 390837 347586 180937
832430380699917184 408109 390241 347176 180933
832430380718128000 407717 389930 347045 180919
832430380736338816 407599 389837 346922 180890
832430380754549504 407798 389998 347026 180865
832430380772760320 408164 390268 347213 180944
832430380790971136 408442 390479 347384 180899
832430380809181824 408636 390609 347439 180791
832430380827392640 408894 390788 347517 180862
832430380845603328 409128 390984 347675 180903
832430380863814048 409480 391266 347825 180875
832430380882025728 409963 391653 348030 180851
832430380900237440 410559 391936 348280 180949
832430380918449280 410651 392035 348358 180916
832430380936660992 410282 391798 348174 180938
832430380954872704 409436 391240 347758 180900
832430380973084416 408646 390632 347468 180884
832430380991296256 407870 390122 347123 180913
832430381009507968 407431 389747 346918 180868
832430381027719680 407474 389806 346897 180901
832430381045931392 407796 389981 347102 180942
832430381064143232 408209 390374 347309 180899
832430381082354944 408655 390652 347512 180942
832430381100566656 408870 390791 347589 180918
832430381118778496 409118 390959 347649 180874
832430381136990208 409342 391113 347724 180887
832430381155201920 409670 391339 347878 180884
832430381173413632 410094 391641 348081 180927
832430381191625472 410444 391929 348243 180992
832430381209837184 410413 391867 348275 180920
832430381228048896 409962 391511 348065 180884
832430381246260736 409231 390993 347693 180947
832430381264472448 408430 390480 347337 180883
832430381282684160 407811 389999 347139 180887
832430381300895872 407510 389742 346934 180909
832430381319107712 407684 389920 347009 180907
832430381337319424 407975 390176 347192 180900
832430381355531136 408361 390461 347337 180889
832430381373742848 408671 390643 347446 180905
832430381391954688 408854 390760 347533 180906
832430381410166400 409054 390906 347614 180906
832430381428378112 409341 391086 347748 180865
832430381446589952 409736 391374 347925 180896
832430381464801664 410314 391824 348173 180897
832430381483013376 410617 392086 348309 180879
832430381501225206 410409 391945 348198 180886
832430381519437568 409846 391507 347968 180864
832430381537649920 408955 390908 347593 180886
832430381555862272 408149 390291 347259 180871
832430381574074624 407602 389925 347051 180866
832430381592286976 407426 389777 346900 180839
832430381610499328 407718 389893 346980 180919
832430381628711680 408104 390223 347236 180932
832430381646924032 408449 390442 347335 180832
832430381665136384 408821 390694 347514 180890
832430381683348736 408996 390805 347617 180915
832430381701561088 409274 390994 347705 180834
832430381719773440 409633 391312 347850 180824
832430381737985920 410014 391604 348000 180896
832430381756198272 410478 391948 348252 180879
832430381774410624 410578 392067 348367 180898
832430381792622976 410135 391766 348188 180945
832430381810835328 409473 391246 347881 180948
832430381829047680 408604 390657 347471 180925
832430381847260032 407967 390039 347138 180936
832430381865472384 407576 389850 347043 180935
832430381883684736 407610 389888 347046 180860
832430381901897088 407958 390091 347162 180920
832430381920109440 408303 390365 347292 180900
832430381938321792 408585 390619 347478 180864
832430381956534144 408869 390773 347555 180907
832430381974746496 408964 390868 347607 180892
832430381992958848 409156 390974 347611 180903
832430382011171200 409512 391272 347833 180902
832430382029383552 410059 391660 348033 180889
832430382047595904 410511 391964 348209 180884
832430382065808256 410529 392002 348296 180864
832430382084020608 410024 391681 348071 180898
832430382102232960 409249 391106 347706 180935
832430382120445312 408422 390494 347345 180870
832430382138657716 407786 390052 347039 180869
832430382156870656 407467 389871 346900 180831
832430382175083648 407600 389869 346951 180884
832430382193296768 407906 390025 347039 180856
832430382211509760 408347 390378 347309 180896
832430382229722880 408711 390591 347421 180954
832430382247935872 408944 390823 347602 180930
832430382266148992 409153 391004 347646 180860
832430382284361984 409429 391198 347756 180882
832430382302575104 409851 391497 347940 180969
832430382320788096 410382 391883 348135 180909
832430382339001216 410601 392119 348275 180909
832430382357214208 410405 391911 348255 180879
832430382375427328 409753 391437 347960 180903
832430382393640320 408861 390751 347553 180892
832430382411853440 408088 390255 347235 180900
832430382430066432 407565 389852 347007 180894
832430382448279552 407535 389828 346989 180847
832430382466492544 407750 389953 347091 180851
832430382484705664 408052 390169 347233 180797
832430382502918656 408541 390587 347412 180834
832430382521131776 408817 390783 347536 180830
832430382539344768 408989 390880 347534 180853
832430382557557888 409125 391026 347638 180880
832430382575770880 409398 391171 347765 180848
832430382593984000 409796 391493 347913 180875
832430382612196992 410355 391876 348173 180874
832430382630410112 410557 391987 348270 180851
832430382648623104 410207 391842 348130 180849
832430382666836224 409575 391337 347833 180854
832430382685049216 408794 390731 347547 180838
832430382703262336 408074 390228 347211 180859
832430382721475328 407632 389917 347030 180917
832430382739688448 407456 389867 346948 180897
832430382757901440 407710 390041 347074 180940
832430382776114652 408029 390230 347198 180850
832430382794327040 408426 390507 347396 180863
832430382812539392 408818 390737 347536 180914
832430382830751616 409054 390904 347625 180930
832430382848963968 409230 390996 347653 180845
832430382867176192 409656 391329 347822 180831
832430382885388544 410153 391692 348069 180850
832430382903600768 410670 392045 348333 180918
832430382921813120 410578 392037 348296 180892
832430382940025344 410032 391698 348084 180902
832430382958237696 409270 391079 347718 180904
832430382976450048 408371 390433 347308 180921
832430382994662272 407794 389959 347078 180901
832430383012874624 407512 389834 346909 180862
832430383031086848 407631 389884 346997 180867
832430383049299200 407965 390099 347077 180887
832430383067511424 408344 390409 347292 180819
832430383085723776 408755 390724 347532 180819
832430383103936000 408944 390886 347626 180916
832430383122148352 409104 390995 347626 180898
832430383140360576 409344 391144 347692 180903
832430383158572928 409631 391418 347898 180903
832430383176785280 410213 391744 348084 180906
832430383194997504 410575 392012 348247 180956
832430383213209856 410422 391900 348172 180937
832430383231422080 409858 391492 347925 180901
832430383249634432 408999 390896 347540 180790
832430383267846656 408198 390328 347192 180829
832430383286059008 407751 390001 347047 180839
832430383304271232 407530 389855 346969 180899
832430383322483584 407742 389961 347068 180938
832430383340695936 408044 390172 347160 180879
832430383358908160 408367 390444 347315 180907
832430383377120512 408667 390665 347497 180899
832430383395332736 408944 390819 347543 180896
832430383413545088 409104 390972 347643 180834
832430383431757262 409434 391251 347799 180867
832430383449970432 409892 391593 348014 180825
832430383468183552 410447 391884 348179 180883
832430383486396672 410669 392080 348296 180852
832430383504609920 410354 391812 348200 180918
832430383522823040 409572 391379 347902 180913
832430383541036160 408699 390703 347514 180863
832430383559249280 407866 390140 347102 180884
832430383577462400 407525 389793 346978 180884
832430383595675520 407407 389800 346945 180862
832430383613888768 407754 389985 347048 180862
832430383632101888 408166 390308 347257 180868
832430383650315008 408582 390567 347435 180888
832430383668528128 408889 390822 347564 180864
832430383686741248 409103 390948 347614 180916
832430383704954368 409256 391131 347704 180923
832430383723167616 409514 391309 347861 180909
832430383741380736 409987 391589 348031 180858
832430383759593856 410333 391828 348187 180930
832430383777806976 410545 391996 348254 180853
832430383796020096 410107 391646 348047 180842
832430383814233344 409318 391138 347688 180891
832430383832446464 408495 390514 347321 180852
832430383850659584 407872 390094 347142 180828
832430383868872704 407606 389857 347012 180855
832430383887085824 407679 389885 346983 180857
832430383905298944 407951 390113 347161 180892
832430383923512192 408243 390347 347295 180887
832430383941725312 408573 390546 347394 180917
832430383959938432 408826 390656 347474 180896
832430383978151552 409034 390853 347612 180872
832430383996364672 409302 391074 347703 180854
832430384014577792 409722 391357 347892 180860
832430384032791040 410219 391729 348112 180864
832430384051004160 410578 392016 348258 180890
832430384069217248 410584 392050 348253 180904
832430384087430400 409960 391623 348016 180888
832430384105643520 409115 390962 347626 180908
832430384123856640 408232 390361 347267 180962
832430384142069888 407592 389904 346985 180925
832430384160283008 407506 389720 346912 180965
832430384178496128 407670 389914 347031 180933
832430384196709248 407921 390152 347112 180893
832430384214922368 408428 390468 347376 180927
832430384233135488 408688 390639 347475 180869
832430384251348736 408942 390891 347523 180875
832430384269561856 409231 391087 347709 180877
832430384287774976 409522 391320 347871 180935
832430384305988096 409875 391542 348070 180909
832430384324201216 410390 391961 348224 180893
832430384342414336 410528 392014 348272 180897
832430384360627584 410293 391838 348184 180973
832430384378840704 409609 391297 347925 180909
832430384397053824 408739 390725 347552 180862
832430384415266944 408008 390228 347225 180906
832430384433480064 407604 389859 347005 180914
832430384451693184 407632 389930 347071 180939
832430384469906432 407925 390077 347128 180923
832430384488119552 408223 390336 347281 180909
832430384506332672 408541 390522 347407 180899
832430384524545792 408790 390676 347460 180846
832430384542758912 408908 390840 347615 180877
832430384560972160 409126 390973 347706 180883
832430384579185280 409544 391226 347901 180894
832430384597398400 410017 391622 348051 180914
832430384615611520 410510 391959 348259 180903
832430384633824640 410570 392060 348335 180876
832430384652037760 410183 391768 348136 180823
832430384670251008 409471 391247 347794 180913
832430384688464128 408612 390602 347465 180863
832430384706677226 407802 390069 347076 180862
832430384724890368 407422 389768 346961 180885
832430384743103488 407475 389789 346965 180905
832430384761316608 407830 390029 347109 180982
832430384779529856 408274 390370 347282 180927
832430384797742976 408629 390654 347445 180923
832430384815956096 408922 390814 347515 180893
832430384834169216 409145 390965 347691 180942
832430384852382336 409429 391183 347780 180925
832430384870595456 409794 391482 347967 180907
832430384888808704 410235 391825 348117 180956
832430384907021824 410457 392015 348276 180924
832430384925234944 410460 391913 348213 180957
832430384943448064 409887 391495 347946 180880
832430384961661184 409061 390920 347563 180906
832430384979874304 408246 390368 347243 180924
832430384998087552 407685 389975 347042 180916
832430385016300672 407515 389798 346986 180908
832430385034513792 407638 389935 346973 180922
832430385052726912 408088 390205 347179 180849
832430385070940032 408452 390532 347367 180898
832430385089153280 408750 390729 347473 180904
832430385107366400 408899 390792 347559 180894
832430385125579520 408971 390878 347593 180902
832430385143792640 409298 391109 347756 180931
832430385162005760 409826 391508 347972 180932
832430385180218880 410389 391884 348150 180824
832430385198432128 410633 392039 348284 180939
832430385216645248 410434 391896 348237 180925
832430385234858368 409815 391469 347939 180941
832430385253071488 409010 390879 347585 180936
832430385271284608 408235 390340 347326 180975
832430385289497728 407702 389903 347060 180889
832430385307710976 407456 389797 346996 180902
832430385325924096 407566 389906 347014 180911
832430385344137216 407993 390212 347202 180881
832430385362350354 408434 390454 347358 180937
832430385380562176 408791 390782 347529 180879
832430385398774016 408991 390848 347577 180887
832430385416985856 409299 391108 347731 180902
832430385435197696 409562 391348 347878 180930
832430385453409536 410072 391710 348130 180960
832430385471621376 410546 392075 348326 180925
832430385489833216 410511 392105 348302 180890
832430385508045056 410120 391755 348144 180914
832430385526256896 409319 391188 347761 180976
832430385544468736 408500 390575 347416 180904
832430385562680576 407902 390145 347119 180936
832430385580892416 407566 389849 346991 180911
832430385599104128 407652 389887 347030 180935
832430385617315968 407879 390061 347085 180847
832430385635527808 408345 390438 347333 180890
832430385653739648 408755 390711 347487 180906
832430385671951488 408911 390862 347524 180891
832430385690163328 409077 391010 347629 180903
832430385708375168 409175 391096 347685 180893
832430385726587008 409609 391303 347880 180966
832430385744798848 410097 391599 348061 180901
832430385763010688 410508 391959 348249 180910
832430385781222528 410487 391947 348245 180903
832430385799434368 409939 391591 348007 180904
832430385817646208 409167 391008 347696 180962
832430385835858048 408420 390435 347347 180869
832430385854069888 407788 389987 347090 180879
832430385872281728 407547 389864 347026 180933
832430385890493568 407616 389910 347036 180955
832430385908705408 407864 390072 347174 180859
832430385926917248 408268 390356 347259 180896
832430385945129088 408659 390707 347474 180943
832430385963340928 408847 390810 347591 180931
832430385981552768 409160 390972 347618 180933
832430385999764562 409424 391203 347778 180915
832430386017975680 409815 391497 347970 180936
832430386036186752 410431 391887 348191 180904
832430386054397696 410690 392104 348338 180919
832430386072608768 410430 391944 348233 180948
832430386090819712 409748 391507 347964 180965
832430386109030784 408712 390794 347508 180942
832430386127241856 408054 390205 347258 180954
832430386145452800 407557 389874 347023 180888
832430386163663872 407517 389832 347020 180894
832430386181874944 407770 390048 347136 180917
832430386200085888 408108 390243 347235 180893
832430386218296960 408609 390609 347432 180909
832430386236507904 408847 390858 347571 180984
832430386254718976 409101 391034 347667 180993
832430386272930048 409202 391080 347752 180915
832430386291140992 409515 391262 347827 180952
832430386309352064 409835 391536 348043 180930
832430386327563136 410324 391828 348131 180887
832430386345774080 410538 391990 348255 180918
832430386363985152 410259 391810 348178 180924
832430386382196096 409544 391300 347856 180909
832430386400407168 408705 390709 347529 180941
832430386418618240 408073 390215 347273 180941
832430386436829184 407648 389951 347102 180923
832430386455040256 407647 389940 347105 180947
832430386473251200 407791 390099 347161 180931
832430386491462272 408156 390372 347282 180924
832430386509673344 408435 390517 347336 180907
832430386527884288 408767 390705 347497 180904
832430386546095360 409011 390961 347612 180893
832430386564306432 409223 391110 347769 180936
832430386582517376 409649 391351 347942 180873
832430386600728448 410180 391807 348133 180969
832430386618939392 410592 392141 348289 180948
832430386637150464 410532 392072 348271 180961
832430386655361396 409983 391676 348042 180959
832430386673574528 409186 391007 347638 180901
832430386691787648 408310 390369 347352 180943
832430386710000768 407703 389954 347035 180923
832430386728214016 407431 389762 346919 180937
832430386746427136 407591 389851 346995 180936
832430386764640256 407949 390141 347179 180945
832430386782853376 408382 390483 347361 180919
832430386801066496 408722 390676 347491 180914
832430386819279616 409000 390895 347628 180894
832430386837492864 409172 391012 347652 180932
832430386855705984 409403 391222 347803 180896
832430386873919104 409810 391485 348015 180945
832430386892132224 410261 391823 348239 180905
832430386910345344 410557 392041 348345 180914
832430386928558464 410396 391983 348238 180923
832430386946771712 409855 391565 347996 180907
832430386964984832 409043 390906 347615 180957
832430386983197952 408263 390420 347294 180881
832430387001411072 407790 390011 347138 180921
832430387019624192 407629 390019 347054 180956
832430387037837440 407770 390068 347076 180984
832430387056050560 408097 390296 347227 180930
832430387074263680 408425 390452 347426 180965
832430387092476800 408675 390658 347468 181010
832430387110689920 408913 390786 347556 180862
832430387128903040 409153 390985 347687 180881
832430387147116288 409462 391270 347774 180877
832430387165329408 409991 391612 348032 180901
832430387183542528 410510 392029 348269 180952
832430387201755648 410658 392114 348306 180894
832430387219968768 410338 391870 348139 180922
832430387238181888 409625 391339 347833 180927
832430387256395136 408768 390703 347501 180909
832430387274608240 407924 390135 347113 180890
832430387292820608 407455 389832 346955 180957
832430387311032960 407507 389789 347008 180928
832430387329245184 407772 389969 347069 180936
832430387347457536 408210 390305 347324 180957
832430387365669760 408674 390614 347508 180944
832430387383882112 408940 390835 347588 180934
832430387402094336 409195 390997 347657 180925
832430387420306688 409424 391241 347794 180950
832430387438518912 409727 391406 347928 180898
832430387456731264 410129 391747 348103 180978
832430387474943616 410463 392001 348287 180947
832430387493155840 410397 391892 348209 180885
832430387511368192 410018 391626 348041 180904
832430387529580416 409261 391113 347707 180896
832430387547792768 408484 390487 347313 180937
832430387566004992 407910 390079 347102 180915
832430387584217344 407578 389821 346990 180943
832430387602429568 407683 389934 347037 180927
832430387620641920 408000 390185 347206 180926
832430387638854144 408353 390458 347350 180889
832430387657066496 408681 390716 347524 180934
832430387675278848 408841 390782 347609 180935
832430387693491072 409085 390851 347649 180973
832430387711703424 409268 391087 347758 180966
832430387729915648 409672 391375 347940 180938
832430387748128000 410277 391831 348199 180983
832430387766340224 410604 392023 348284 180893
832430387784552576 410513 391994 348246 180917
832430387802764800 409919 391593 348025 180882
832430387820977152 409041 391015 347685 180886
832430387839189504 408175 390345 347285 180884
832430387857401728 407617 389941 347069 180871
832430387875614080 407438 389712 346960 180923
832430387893826304 407600 389900 347112 180932
832430387912038656 408008 390189 347240 180907
832430387930250842 408418 390496 347363 180907
832430387948464000 408744 390705 347486 180928
832430387966677120 408998 390839 347540 180951
832430387984890240 409198 391001 347648 180880
832430388003103488 409565 391291 347817 180917
832430388021316608 409904 391554 348019 180891
832430388039529728 410345 391935 348195 180917
832430388057742848 410571 392028 348333 180950
832430388075955968 410227 391829 348158 180927
832430388094169088 409511 391282 347811 180949
832430388112382336 408676 390687 347477 180907
832430388130595456 407988 390228 347165 180937
832430388148808576 407640 389937 347077 180970
832430388167021696 407577 389863 347008 180931
832430388185234816 407897 390136 347164 180927
832430388203447936 408303 390417 347344 180922
832430388221661184 408638 390628 347474 180945
832430388239874304 408849 390830 347553 180927
832430388258087424 408925 390886 347610 180863
832430388276300544 409120 390926 347620 180886
832430388294513664 409488 391317 347812 180926
832430388312726912 410004 391633 348013 180942
832430388330940032 410470 391971 348245 180948
832430388349153152 410615 392099 348293 180889
832430388367366272 410201 391787 348187 180916
832430388385579392 409438 391227 347774 180843
832430388403792512 408599 390646 347465 180902
832430388422005760 407925 390126 347200 180921
832430388440218880 407511 389811 347045 180938
832430388458432000 407547 389813 346993 180893
832430388476645120 407808 390002 347132 180933
832430388494858240 408243 390351 347277 180913
832430388513071360 408605 390676 347440 180888
832430388531284608 408924 390882 347563 180950
832430388549497728 409107 390941 347677 180943
832430388567710828 409349 391114 347752 180906
832430388585923712 409825 391548 347918 180917
832430388604136576 410341 391911 348190 180932
832430388622349440 410584 392083 348313 180909
832430388640562304 410475 391980 348273 180948
832430388658775296 409809 391533 347985 180931
832430388676988160 409017 390869 347676 180955
832430388695201024 408283 390398 347346 180933
832430388713413888 407699 389964 347102 180917
832430388731626752 407522 389810 347018 180917
832430388749839616 407847 389974 347160 180943
832430388768052480 408140 390221 347274 180973
832430388786265344 408586 390568 347501 180986
832430388804478336 408802 390744 347592 180947
832430388822691200 408895 390913 347614 180939
832430388840904064 409052 390993 347695 180930
832430388859116928 409336 391138 347772 180940
832430388877329792 409783 391444 347977 180950
832430388895542656 410296 391854 348187 180921
832430388913755520 410554 392037 348292 180922
832430388931968512 410268 391826 348189 180839
832430388950181376 409699 391475 347990 180953
832430388968394240 408991 390919 347633 180971
832430388986607104 408235 390401 347297 180891
832430389004819968 407747 390006 347060 180925
832430389023032832 407596 389886 347037 180926
832430389041245696 407740 390032 347083 180925
832430389059458560 408026 390238 347236 180945
832430389077671552 408483 390526 347466 180942
832430389095884416 408781 390774 347523 180884
832430389114097280 408989 390927 347554 180934
832430389132310144 409257 391104 347678 180944
832430389150523008 409552 391362 347837 180900
832430389168735872 410182 391676 348099 180950
832430389186948736 410669 392055 348373 180982
832430389205161658 410626 392091 348338 180925
832430389223373312 410153 391743 348102 180908
832430389241585024 409341 391117 347735 180934
832430389259796608 408476 390507 347406 180904
832430389278008320 407804 390026 347117 180866
832430389296219904 407524 389834 347027 180846
832430389314431616 407567 389856 347004 180893
832430389332643328 407939 390177 347168 180859
832430389350854912 408349 390529 347376 180926
832430389369066624 408700 390739 347473 180901
832430389387278208 408914 390890 347586 180896
832430389405489920 409090 391002 347674 180928
832430389423701632 409258 391149 347743 180920
832430389441913216 409587 391382 347895 180967
832430389460124928 410085 391704 348119 180942
832430389478336512 410580 392085 348314 180984
832430389496548224 410559 392065 348292 180925
832430389514759936 409981 391621 348071 180880
832430389532971520 409216 391032 347733 180905
832430389551183232 408425 390419 347415 180937
832430389569394816 407905 390069 347181 180936
832430389587606528 407608 389882 347019 180922
832430389605818112 407704 389990 347043 181020
832430389624029824 407967 390214 347202 180967
832430389642241536 408211 390402 347318 180909
832430389660453120 408664 390728 347457 180940
832430389678664832 408947 390874 347591 180962
832430389696876416 409145 390924 347682 180881
832430389715088128 409412 391203 347784 180877
832430389733299840 409846 391527 348000 180917
832430389751511424 410460 391930 348204 180918
832430389769723136 410680 392155 348282 180975
832430389787934720 410439 391994 348226 180903
832430389806146432 409706 391425 347917 180927
832430389824358144 408786 390757 347469 180870
832430389842569764 407971 390160 347173 180922
832430389860782848 407522 389863 347041 180938
832430389878995968 407497 389760 346952 180917
832430389897209088 407752 389959 347100 180862
832430389915422336 408106 390197 347238 180896
832430389933635456 408487 390528 347423 180923
832430389951848576 408889 390779 347628 180913
832430389970061696 409120 390912 347653 180906
832430389988274816 409272 391056 347770 180860
832430390006487936 409565 391305 347913 180948
832430390024701184 409957 391596 348033 180889
832430390042914304 410349 391972 348247 180924
832430390061127424 410517 392019 348324 180949
832430390079340544 410139 391727 348134 180851
832430390097553664 409475 391203 347861 180920
832430390115766784 408627 390575 347507 180954
832430390133980032 407969 390102 347199 180911
832430390152193152 407646 389943 347039 180903
832430390170406272 407664 389998 347039 180959
832430390188619392 407857 390129 347124 180974
832430390206832512 408167 390400 347282 180921
832430390225045632 408436 390557 347395 180887
832430390243258880 408787 390745 347469 180876
832430390261472000 409058 390840 347592 180907
832430390279685120 409283 391074 347704 180948
832430390297898240 409639 391316 347887 180892
832430390316111360 410149 391700 348106 180925
832430390334324608 410564 392039 348274 180901
832430390352537728 410555 392042 348273 180911
832430390370750848 410093 391648 348069 180907
832430390388963968 409251 391005 347689 180911
832430390407177088 408364 390342 347376 180921
832430390425390208 407668 389909 347090 180871
832430390443603456 407396 389784 346977 180903
832430390461816576 407589 389901 346975 180887
832430390480029696 407986 390139 347107 180926
832430390498242816 408445 390498 347367 180907
832430390516456026 408769 390707 347480 180859
832430390534668672 408960 390876 347595 180904
832430390552881280 409202 391040 347671 180890
832430390571093760 409469 391244 347859 180894
832430390589306368 409913 391485 348030 180965
832430390607518976 410243 391722 348096 180925
832430390625731584 410450 391942 348236 180910
832430390643944064 410275 391809 348154 180940
832430390662156672 409693 391348 347888 180919
832430390680369280 408875 390790 347554 180880
832430390698581888 408171 390245 347236 180939
832430390716794368 407691 389925 346978 180903
832430390735006976 407601 389850 346961 180870
832430390753219584 407871 389977 347139 180919
832430390771432192 408171 390277 347321 180883
832430390789644672 408470 390534 347434 180873
832430390807857280 408685 390724 347540 180846
832430390826069888 408798 390800 347531 180911
832430390844282496 409088 390913 347642 180873
832430390862494976 409401 391219 347799 180894
832430390880707584 409986 391626 348067 180907
832430390898920192 410476 391967 348246 180893
832430390917132800 410604 392057 348316 180921
832430390935345280 410353 391922 348213 181000
832430390953557888 409615 391332 347863 180915
832430390971770496 408721 390714 347503 180950
832430390989983104 408005 390203 347223 180992
832430391008195584 407538 389851 346995 180957
832430391026408192 407436 389813 346937 180913
832430391044620800 407847 390088 347113 180925
832430391062833408 408201 390308 347277 180928
832430391081045888 408527 390597 347477 180920
832430391099258496 408784 390750 347523 180866
832430391117471104 409036 390859 347620 180865
832430391135683712 409333 391148 347738 180819
832430391153896174 409698 391407 347965 180874
832430391172109056 410124 391661 348152 180890
832430391190321920 410581 392002 348339 180979
832430391208534784 410460 391957 348254 180945
832430391226747520 409905 391602 348059 180917
832430391244960384 409139 391016 347708 180886
832430391263173248 408425 390513 347368 180933
832430391281386112 407796 390038 347163 180908
832430391299598976 407538 389793 346963 180858
832430391317811712 407648 389971 347035 180885
832430391336024576 408019 390236 347197 180884
832430391354237440 408399 390505 347428 180892
832430391372450304 408660 390703 347479 180867
832430391390663040 408818 390770 347585 180870
832430391408875904 408978 390970 347646 180875
832430391427088768 409267 391137 347743 180913
832430391445301632 409670 391451 347914 180931
832430391463514496 410216 391879 348161 180890
832430391481727232 410615 392105 348288 180936
832430391499940096 410428 391970 348274 180967
832430391518152960 409921 391571 348002 180951
832430391536365824 409094 390959 347621 180903
832430391554578688 408282 390384 347336 180931
832430391572791424 407709 390000 347079 180880
832430391591004288 407445 389768 346995 180903
832430391609217152 407596 389869 347037 180898
832430391627430016 408009 390117 347177 180911
832430391645642880 408427 390484 347396 180931
832430391663855616 408778 390750 347546 180952
832430391682068480 408992 390929 347612 180922
832430391700281344 409251 391081 347752 180953
832430391718494208 409541 391337 347836 180913
832430391736707072 410000 391701 348046 180977
832430391754919808 410489 391987 348259 180913
832430391773132672 410666 392070 348318 180966
832430391791345480 410202 391746 348121 180957
832430391809558656 409427 391228 347773 180923
832430391827771776 408605 390634 347460 180902
832430391845984896 407943 390173 347132 180876
832430391864198144 407604 389909 346983 180889
832430391882411264 407578 389849 346900 180841
832430391900624384 407919 390111 347124 180865
832430391918837504 408347 390476 347332 180945
832430391937050624 408670 390684 347470 180897
832430391955263744 408878 390845 347538 180860
832430391973476992 408997 390933 347576 180860
832430391991690112 409215 390998 347678 180900
832430392009903232 409475 391209 347750 180835
832430392028116352 410022 391598 348017 180867
832430392046329472 410464 391938 348252 180865
832430392064542592 410542 392036 348307 180930
832430392082755840 410069 391711 348162 180913
832430392100968960 409319 391161 347812 180901
832430392119182080 408563 390587 347484 180919
832430392137395200 407945 390131 347191 180907
832430392155608320 407525 389845 346976 180944
832430392173821568 407546 389913 346961 180920
832430392192034688 407780 390069 347098 180942
832430392210247808 408246 390330 347266 180955
832430392228460928 408602 390602 347437 180917
832430392246674048 408859 390814 347568 180883
832430392264887168 409150 391008 347690 180927
832430392283100416 409428 391186 347782 180952
832430392301313536 409749 391455 347942 180968
832430392319526656 410306 391793 348147 180916
832430392337739776 410617 392083 348358 180940
832430392355952896 410433 392018 348285 180924
832430392374166016 409800 391499 347997 180920
832430392392379264 408928 390830 347635 180910
832430392410592384 408109 390305 347317 180940
832430392428805466 407637 390017 347047 180899
832430392447018624 407540 389873 347006 180927
832430392465231744 407742 389973 347106 180911
832430392483444864 408125 390254 347249 180947
832430392501658112 408597 390562 347443 180942
832430392519871232 408883 390763 347529 180913
832430392538084352 409010 390909 347661 180921
832430392556297472 409172 391033 347687 180918
832430392574510592 409505 391283 347802 180950
832430392592723712 409800 391536 347983 180938
832430392610936960 410405 391937 348192 180952
832430392629150080 410611 392113 348323 180917
832430392647363200 410303 391861 348245 180934
832430392665576320 409690 391414 347899 180945
832430392683789440 408770 390736 347488 180942
832430392702002560 408165 390277 347264 180954
832430392720215808 407646 389957 347037 180923
832430392738428928 407551 389874 346931 180887
832430392756642048 407781 390066 347099 180922
832430392774855168 408067 390234 347205 180959
832430392793068288 408343 390434 347252 180899
832430392811281408 408723 390716 347481 180896
832430392829494656 408998 390923 347618 180936
832430392847707776 409241 391036 347631 180904
832430392865920896 409660 391342 347829 180866
832430392884134016 410150 391739 348116 180924
832430392902347136 410599 391991 348310 180894
832430392920560384 410673 392040 348303 180892
832430392938773504 410220 391766 348105 180914
832430392956986624 409419 391182 347744 180907
832430392975199744 408505 390585 347399 180937
832430392993412864 407800 390022 347115 180933
832430393011625984 407471 389848 346969 180915
832430393029839232 407582 389851 347014 180948
832430393048052352 407849 390028 347071 180869
832430393066265472 408340 390369 347316 180857
832430393084478586 408700 390673 347513 180881
832430393102690816 408888 390807 347571 180907
832430393120903040 409095 390942 347633 180853
832430393139115392 409347 391145 347784 180942
832430393157327616 409632 391382 347873 180881
832430393175539840 410080 391669 348119 180876
832430393193752192 410449 391966 348230 180898
832430393211964416 410520 391866 348226 180884
832430393230176768 409863 391558 347987 180870
832430393248388992 409015 390942 347653 180870
832430393266601216 408336 390408 347305 180858
832430393284813568 407836 390010 347047 180927
832430393303025792 407540 389838 347009 180898
832430393321238016 407720 389938 347037 180868
832430393339450368 408004 390196 347238 180917
832430393357662592 408376 390404 347287 180909
832430393375874816 408663 390657 347420 180960
832430393394087168 408778 390865 347542 180886
832430393412299392 409033 390943 347635 180879
832430393430511744 409472 391189 347722 180882
832430393448723968 409969 391562 347994 180891
832430393466936192 410381 391894 348256 180904
832430393485148544 410737 392100 348369 180903
832430393503360768 410444 391945 348212 180928
832430393521572992 409732 391436 347868 180880
832430393539785344 408807 390819 347520 180973
832430393557997568 408000 390159 347184 180925
832430393576209792 407561 389874 347009 180949
832430393594422144 407464 389790 346989 180943
832430393612634368 407670 389995 347083 180923
832430393630846720 408113 390276 347196 180886
832430393649058944 408532 390510 347328 180872
832430393667271168 408802 390783 347520 180909
832430393685483520 409054 390925 347572 180866
832430393703695744 409316 391148 347663 180922
832430393721908054 409617 391380 347858 180934
832430393740121216 409956 391619 348059 180904
832430393758334336 410348 391984 348314 180902
832430393776547456 410459 392043 348246 180920
832430393794760704 410125 391720 348068 180887
832430393812973824 409282 391094 347710 180893
832430393831186944 408510 390561 347451 180892
832430393849400064 407934 390149 347177 180842
832430393867613184 407576 389861 347044 180858
832430393885826304 407634 389935 347023 180856
832430393904039552 407965 390172 347176 180932
832430393922252672 408369 390396 347288 180909
832430393940465792 408539 390597 347424 180865
832430393958678912 408739 390768 347542 180914
832430393976892032 408974 390910 347620 180924
832430393995105152 409250 391115 347721 180923
832430394013318400 409657 391336 347914 180922
832430394031531520 410188 391751 348131 180937
832430394049744640 410479 391998 348281 180943
832430394067957760 410587 392062 348246 180914
832430394086170880 410021 391686 348033 180882
832430394104384128 409209 391058 347679 180919
832430394122597248 408323 390392 347346 180859
832430394140810368 407723 389975 347094 180894
832430394159023488 407367 389739 346910 180821
832430394177236608 407516 389864 347014 180876
832430394195449728 407904 390138 347136 180925
832430394213662976 408353 390446 347372 180884
832430394231876096 408698 390745 347490 180880
832430394250089216 408926 390881 347569 180959
832430394268302336 409230 391042 347657 180923
832430394286515456 409547 391275 347770 180898
832430394304728576 409837 391554 347994 180868
832430394322941824 410320 391866 348173 180893
832430394341154944 410527 391976 348239 180886
832430394359368040 410311 391835 348162 180903
832430394377582080 409631 391359 347925 180882
832430394395796096 408791 390723 347616 180902
832430394414010112 408093 390239 347240 180859
832430394432224128 407610 389872 347008 180867
832430394450438144 407534 389875 347009 180949
832430394468652160 407831 390079 347148 180922
832430394486866176 408224 390336 347245 180851
832430394505080192 408553 390635 347386 180900
832430394523294208 408803 390795 347573 180940
832430394541508224 408974 390865 347641 180950
832430394559722240 409143 390963 347684 180947
832430394577936256 409465 391286 347844 180913
832430394596150272 409921 391614 348105 180917
832430394614364288 410493 391987 348304 180890
832430394632578304 410698 392067 348286 180908
832430394650792320 410287 391785 348162 180972
832430394669006336 409564 391341 347927 180954
832430394687220352 408682 390680 347531 180921
832430394705434368 408042 390157 347150 180952
832430394723648384 407545 389870 347022 180939
832430394741862400 407350 389889 347030 180934
832430394760076416 407734 389988 347125 180919
832430394778290432 408265 390331 347251 180914
832430394796504448 408605 390590 347440 180890
832430394814718464 408800 390877 347593 180897
832430394832932480 409093 390984 347640 180925
832430394851146496 409424 391115 347733 180916
832430394869360512 409848 391496 347911 180921
832430394887574528 410220 391825 348121 180960
832430394905788544 410588 392118 348297 180908
832430394924002560 410554 392017 348266 180999
832430394942216576 409990 391581 348070 180936
832430394960430592 409159 390991 347651 180857
832430394978644608 408271 390397 347265 180866
832430394996858544 407832 389976 347059 180890
832430395015071616 407597 389806 346965 180914
832430395033284736 407755 389938 347066 180907
832430395051497856 408101 390196 347222 180950
832430395069711104 408580 390546 347411 180915
832430395087924224 408851 390774 347552 180944
832430395106137344 408928 390847 347609 180919
832430395124350464 409083 390964 347710 180924
832430395142563584 409297 391147 347790 180872
832430395160776704 409839 391475 347929 180930
832430395178989952 410284 391860 348185 180923
832430395197203072 410607 392017 348270 180857
832430395215416192 410324 391862 348156 180892
832430395233629312 409804 391421 347926 180927
832430395251842432 409083 390928 347662 180988
832430395270055552 408260 390358 347352 180938
832430395288268800 407728 389978 347109 180927
832430395306481920 407609 389852 347008 180939
832430395324695040 407706 389983 347028 180904
832430395342908160 408043 390231 347198 180927
832430395361121280 408489 390531 347344 180954
832430395379334400 408721 390686 347503 180863
832430395397547648 408964 390819 347559 180904
832430395415760768 409128 391006 347654 180843
832430395433973888 409602 391297 347850 180910
832430395452187008 410030 391633 348036 180911
832430395470400128 410649 392030 348240 180920
832430395488613376 410681 392118 348290 180897
832430395506826496 410097 391870 348189 180948
832430395525039616 409440 391272 347810 180913
832430395543252736 408644 390570 347384 180917
832430395561465856 407924 390072 347095 180902
832430395579678976 407610 389829 346949 180899
832430395597892224 407620 389854 346975 180899
832430395616105344 407890 390058 347117 180883
832430395634318522 408288 390333 347239 180897
832430395652530944 408607 390647 347486 180884
832430395670743424 408855 390846 347598 180898
832430395688956032 409003 390897 347600 180905
832430395707168512 409272 391060 347761 180942
832430395725381120 409576 391320 347898 180943
832430395743593600 410070 391648 348112 180904
832430395761806080 410511 392036 348284 180854
832430395780018688 410519 392024 348289 180894
832430395798231168 410104 391720 348162 180967
832430395816443776 409342 391098 347787 180939
832430395834656256 408562 390496 347364 180935
832430395852868736 407954 390157 347177 180900
832430395871081344 407610 389923 347014 180936
832430395889293824 407682 389900 347099 180981
832430395907506432 407943 390155 347128 180936
832430395925718912 408346 390415 347369 180969
832430395943931520 408730 390609 347475 180911
832430395962144000 408986 390816 347627 180927
832430395980356480 409185 391012 347682 180930
832430395998569088 409378 391087 347762 180932
832430396016781568 409744 391425 347883 180881
832430396034994176 410422 391882 348186 180902
832430396053206656 410787 392160 348311 180890
832430396071419136 410553 391994 348256 180911
832430396089631744 409941 391585 348053 180926
832430396107844224 408934 390853 347585 180966
832430396126056832 408111 390214 347197 180943
832430396144269312 407513 389841 346990 180841
832430396162481792 407445 389816 347014 180850
832430396180694400 407681 389998 347094 180857
832430396198906880 408131 390266 347253 180916
832430396217119488 408516 390488 347377 180906
832430396235331968 408818 390782 347511 180893
832430396253544448 409045 390960 347600 180862
832430396271757144 409263 391098 347702 180981
832430396289968384 409630 391297 347855 180942
832430396308179584 409886 391558 348035 180893
832430396326390784 410362 391921 348239 180956
832430396344601984 410566 392074 348317 180896
832430396362813184 410291 391830 348177 180868
832430396381024384 409563 391256 347806 180860
832430396399235584 408695 390708 347492 180889
832430396417446784 408060 390174 347161 180915
832430396435657984 407649 389882 346984 180922
832430396453869056 407706 389941 347004 180933
832430396472080256 408025 390168 347133 180952
832430396490291456 408335 390399 347221 180925
832430396508502656 408539 390549 347394 180900
832430396526713856 408766 390702 347505 180967
832430396544925056 409027 390890 347607 180931
832430396563136256 409355 391119 347778 180923
832430396581347456 409659 391384 347864 180948
832430396599558656 410109 391689 348096 180928
832430396617769856 410528 391995 348251 180886
832430396635981056 410671 392133 348318 180978
832430396654192256 410180 391712 348065 180889
832430396672403456 409389 391187 347805 180909
832430396690614656 408467 390528 347426 180896
832430396708825856 407799 390020 347053 180901
832430396727037056 407479 389739 346925 180904
832430396745248256 407571 389902 346994 180909
832430396763459456 407859 390094 347145 180891
832430396781670528 408259 390391 347321 180873
832430396799881728 408712 390663 347436 180871
832430396818092928 408984 390844 347507 180947
832430396836304128 409143 391006 347682 180950
832430396854515328 409448 391160 347751 180864
832430396872726528 409787 391454 347898 180882
832430396890937728 410271 391819 348101 180896
832430396909148928 410510 392018 348233 180921
832430396927360080 410457 391943 348298 180927
832430396945572224 409866 391505 348007 180880
832430396963784320 409045 390963 347666 180898
832430396981996288 408248 390405 347314 180869
832430397000208384 407736 389980 347014 180917
832430397018420480 407647 389897 346966 180871
832430397036632448 407757 390025 347028 180835
832430397054844544 408117 390255 347259 180897
832430397073056640 408501 390513 347353 180925
832430397091268608 408758 390766 347537 180935
832430397109480704 408796 390819 347560 180901
832430397127692800 409012 390984 347668 180890
832430397145904768 409442 391229 347866 180938
832430397164116864 409915 391542 348020 180949
832430397182328960 410466 391928 348204 180898
832430397200540928 410684 392141 348379 180867
832430397218753024 410402 391936 348247 180937
832430397236965120 409693 391436 347930 180897
832430397255177088 408878 390861 347571 180954
832430397273389184 408103 390315 347238 180948
832430397291601280 407531 389913 347036 180957
832430397309813248 407338 389743 346968 180913
832430397328025344 407756 389940 347046 180901
832430397346237440 408209 390331 347288 180930
832430397364449408 408638 390556 347475 180892
832430397382661504 408825 390812 347601 180905
832430397400873600 409068 390897 347626 180928
832430397419085568 409409 391130 347714 180944
832430397437297664 409695 391459 347940 180962
832430397455509760 410094 391704 348124 180916
832430397473721728 410526 392036 348281 180996
832430397491933824 410511 391954 348257 180894
832430397510145792 410086 391693 348120 180935
832430397528357888 409336 391172 347827 180898
832430397546569984 408602 390604 347495 180947
832430397564781920 407976 390097 347174 180942
832430397582995200 407613 389841 346954 180896
832430397601208576 407638 389893 347019 180889
832430397619421824 407931 390163 347176 180904
832430397637635072 408366 390455 347377 180914
832430397655848448 408722 390702 347471 180938
832430397674061824 408887 390802 347570 180921
832430397692275072 408991 390893 347583 180907
832430397710488320 409233 391121 347682 180893
832430397728701696 409725 391416 347919 180903
832430397746915072 410208 391799 348150 180937
832430397765128320 410631 392093 348363 180914
832430397783341568 410502 391990 348259 180870
832430397801554944 410046 391616 348033 180890
832430397819768320 409239 391075 347751 180897
832430397837981568 408449 390493 347359 180919
832430397856194816 407770 389988 347124 180921
832430397874408192 407511 389795 346989 180964
832430397892621568 407593 389850 347005 180903
832430397910834816 408001 390118 347181 180914
832430397929048064 408376 390505 347387 180877
832430397947261440 408704 390671 347539 180874
832430397965474816 408944 390869 347648 180907
832430397983688064 409196 391029 347712 180899
832430398001901312 409589 391277 347832 180857
832430398020114688 410008 391581 348044 180905
832430398038328064 410520 391959 348249 180941
832430398056541312 410601 392104 348319 180900
832430398074754560 410287 391827 348175 180948
832430398092967936 409637 391343 347859 180938
832430398111181312 408767 390707 347496 180855
832430398129394560 408080 390155 347232 180906
832430398147607808 407655 389884 347017 180925
832430398165821184 407558 389831 347042 180910
832430398184034560 407862 390033 347095 180869
832430398202247808 408284 390365 347296 180881
832430398220461152 408642 390617 347427 180954
832430398238673536 408903 390812 347568 180923
832430398256885888 409005 390885 347615 180942
832430398275098112 409154 391091 347702 180889
832430398293310464 409504 391234 347874 180935
832430398311522816 409992 391582 348018 180948
832430398329735168 410586 392050 348303 180945
832430398347947392 410692 392157 348362 181019
832430398366159744 410345 391888 348236 180966
832430398384372096 409519 391249 347870 180920
832430398402584320 408757 390684 347499 180930
832430398420796672 408035 390224 347256 180901
832430398439009024 407609 389899 347059 180918
832430398457221248 407631 389913 347040 180932
832430398475433600 407874 390062 347093 180902
832430398493645952 408256 390344 347296 180941
832430398511858304 408558 390614 347509 180902
832430398530070528 408893 390850 347612 180956
832430398548282880 409066 390951 347672 180914
832430398566495232 409340 391136 347752 180872
832430398584707456 409699 391504 347947 180951
832430398602919808 410319 391869 348198 180981
832430398621132160 410661 392093 348342 180979
832430398639344384 410514 392001 348320 180938
832430398657556736 409911 391577 348031 180900
832430398675769088 408999 390924 347648 180883
832430398693981440 408267 390394 347359 180930
832430398712193664 407721 389938 347117 180913
832430398730406016 407517 389903 347005 180951
832430398748618368 407702 389958 347085 180904
832430398766830592 408102 390221 347229 180986
832430398785042944 408547 390585 347469 181008
832430398803255296 408860 390810 347508 180932
832430398821467520 409013 390943 347588 180923
832430398839679872 409205 391002 347606 180953
832430398857892138 409414 391167 347717 180896
832430398876103424 409699 391466 347874 180921
832430398894314752 410348 391844 348247 180959
832430398912526080 410698 392065 348328 180968
832430398930737408 410391 391830 348204 180922
832430398948948864 409821 391489 348029 180959
832430398967160192 408996 390888 347624 180903
832430398985371520 408340 390409 347305 180960
832430399003582848 407831 390048 347138 180973
832430399021794176 407607 389920 347023 180931
832430399040005504 407764 389998 347092 180924
832430399058216960 408033 390239 347234 180924
832430399076428288 408327 390436 347352 180905
832430399094639616 408667 390683 347529 180876
832430399112850944 408921 390927 347623 180925
832430399131062272 409230 391031 347719 180909
832430399149273600 409620 391323 347832 180891
832430399167484928 410118 391673 348033 180928
832430399185696384 410560 392085 348267 180882
832430399203907712 410703 392155 348352 180945
832430399222119040 410259 391767 348122 180850
832430399240330368 409494 391294 347876 180934
832430399258541696 408581 390624 347453 180880
832430399276753024 407952 390049 347164 180961
832430399294964352 407545 389864 346979 180937
832430399313175808 407573 389853 347002 180859
832430399331387136 407859 390017 347137 180911
832430399349598464 408326 390375 347348 180884
832430399367809792 408802 390724 347554 180977
832430399386021120 409011 390944 347722 181011
832430399404232448 409129 391017 347757 180931
832430399422443904 409410 391250 347803 180944
832430399440655232 409729 391379 347917 180884
832430399458866560 410157 391725 348143 180941
832430399477077946 410577 392071 348351 180940
832430399495289984 410523 391969 348268 180943
832430399513502080 410091 391674 348111 180967
832430399531714048 409275 391111 347746 180987
832430399549926144 408597 390568 347470 180972
832430399568138240 407923 390139 347117 180965
832430399586350208 407677 389984 346974 180909
832430399604562304 407747 390033 347082 180885
832430399622774400 407960 390285 347176 180876
832430399640986368 408354 390450 347313 180885
832430399659198464 408625 390684 347411 180908
832430399677410560 408913 390851 347593 180927
832430399695622528 409022 390925 347631 180884
832430399713834624 409343 391155 347712 180937
832430399732046720 409809 391476 347945 180944
832430399750258688 410315 391877 348153 180896
832430399768470784 410690 392082 348352 180877
832430399786682880 410545 392029 348300 180868
832430399804894848 409855 391543 348012 180915
832430399823106944 408912 390881 347567 180938
832430399841319040 408125 390294 347263 180917
832430399859531008 407537 389852 346993 180923
832430399877743104 407480 389786 346980 180904
832430399895955200 407716 389823 346985 180875
832430399914167168 408056 390265 347222 180876
832430399932379264 408532 390587 347397 180975
832430399950591360 408859 390782 347582 180874
832430399968803328 409167 391072 347679 180907
832430399987015424 409332 391074 347712 180937
832430400005227392 409689 391418 347865 180939
832430400023439488 409958 391678 348060 180927
832430400041651584 410359 391937 348202 180887
832430400059863552 410467 391981 348356 180884
832430400078075648 410213 391795 348204 180965
832430400096287744 409557 391301 347863 180969
832430400114499784 408728 390681 347555 180953
832430400132711424 408018 390225 347192 180935
832430400150923008 407597 389939 347008 180922
832430400169134720 407681 390020 347100 180941
832430400187346304 407881 390160 347200 180938
832430400205557888 408317 390414 347339 180925
832430400223769472 408614 390603 347418 180891
832430400241981184 408848 390760 347572 180920
832430400260192768 408996 390937 347625 180918
832430400278404352 409266 391058 347684 180913
832430400296615936 409611 391406 347981 180925
832430400314827648 410142 391631 348099 180920
832430400333039232 410653 392025 348350 180941
832430400351250816 410645 392037 348321 180951
832430400369462400 410230 391740 348191 180939
832430400387674112 409347 391153 347790 180953
832430400405885696 408448 390535 347428 180958
832430400424097280 407829 390100 347153 180924
832430400442308864 407439 389861 346994 180976
832430400460520576 407559 389866 347024 180985
832430400478732160 407922 390134 347187 180978
832430400496943744 408298 390456 347380 180971
832430400515155328 408698 390711 347552 180962
832430400533367040 408902 390852 347598 180883
832430400551578624 409158 390981 347728 180897
832430400569790208 409728 391273 347944 180945
832430400588001792 409900 391554 348075 180920
832430400606213504 410206 391945 348260 181027
832430400624425088 410548 392064 348288 180914
832430400642636672 410442 391853 348199 180910
832430400660848256 409867 391443 348003 180925
832430400679059968 408991 390843 347634 180970
832430400697271552 408215 390352 347316 180947
832430400715483136 407812 390000 347068 180960
832430400733694720 407607 389820 347017 180957
832430400751906364 407822 390069 347157 180985
832430400770118528 408132 390333 347331 180917
832430400788330752 408625 390579 347443 180922
832430400806543104 408845 390729 347532 180955
832430400824755328 408853 390869 347673 180943
832430400842967552 409010 390989 347704 180982
832430400861179904 409488 391212 347806 180956
832430400879392128 409930 391576 347980 180937
832430400897604480 410391 391971 348219 180934
832430400915816704 410647 392100 348282 180956
832430400934028928 410373 391863 348207 180948
832430400952241280 409714 391413 347914 180916
832430400970453504 408752 390803 347641 180931
832430400988665728 408049 390287 347307 180979
832430401006878080 407680 389912 347069 180952
832430401025090304 407501 389812 347014 180956
832430401043302528 407750 389974 347093 180992
832430401061514880 408191 390292 347222 180982
832430401079727104 408535 390546 347370 180960
832430401097939456 408840 390748 347509 180869
832430401116151680 409005 390978 347683 180944
832430401134363904 409307 391202 347767 180955
832430401152576256 409784 391418 347926 180956
832430401170788480 410226 391760 348147 180959
832430401189000704 410582 392084 348313 181022
832430401207213056 410533 392062 348333 180923
832430401225425280 410074 391760 348090 180933
832430401243637504 409354 391194 347768 180935
832430401261849856 408534 390579 347409 181016
832430401280062080 407892 390119 347128 180951
832430401298274304 407626 389861 347002 180974
832430401316486656 407712 389952 347073 181019
832430401334698880 408041 390129 347244 180908
832430401352911232 408527 390617 347497 180985
832430401371123456 408815 390806 347530 180879
832430401389335824 409002 390919 347649 180922
832430401407547264 409044 390996 347673 180909
832430401425758720 409258 391134 347781 180924
832430401443970048 409696 391427 347951 180942
832430401462181504 410234 391790 348118 180883
832430401480392832 410578 392040 348340 180931
832430401498604288 410524 391946 348341 180962
832430401516815616 409952 391599 347994 180877
832430401535027072 409169 391068 347666 180914
832430401553238400 408391 390486 347395 180948
832430401571449856 407806 390011 347125 180934
832430401589661312 407620 389881 346958 180914
832430401607872640 407698 389942 347029 180898
832430401626084096 408035 390197 347248 180960
832430401644295424 408448 390540 347414 181017
832430401662506880 408818 390797 347592 181011
832430401680718208 408999 390886 347626 180944
832430401698929664 409258 391035 347727 180947
832430401717140992 409460 391215 347811 180909
832430401735352448 410028 391662 348055 180955
832430401753563776 410549 391973 348259 180937
832430401771775232 410701 392098 348340 180903
832430401789986688 410412 391910 348266 180924
832430401808198016 409677 391470 347965 181022
832430401826409472 408722 390676 347536 180940
832430401844620800 407962 390182 347236 180939
832430401862832256 407551 389872 347056 180899
832430401881043584 407590 389913 347039 180974
832430401899255040 407820 390077 347114 181002
832430401917466368 408178 390386 347294 180934
832430401935677824 408648 390643 347441 180915
832430401953889280 408948 390833 347640 180905
832430401972100608 409098 390937 347679 180999
832430401990312064 409233 391066 347772 180916
832430402008523392 409473 391254 347858 180933
832430402026734774 409973 391569 348054 180952
832430402044946816 410499 391936 348251 180888
832430402063158912 410580 391997 348287 180933
832430402081370880 410117 391705 348183 180945
832430402099582976 409402 391234 347820 180941
832430402117795072 408529 390628 347487 180985
832430402136007040 407970 390163 347158 180941
832430402154219136 407644 389959 347064 180986
832430402172431232 407729 389951 347088 180972
832430402190643200 407898 390168 347187 180966
832430402208855296 408241 390314 347319 180954
832430402227067392 408573 390638 347437 180889
832430402245279360 408880 390838 347607 180972
832430402263491456 409137 390992 347662 180991
832430402281703552 409393 391158 347833 180962
832430402299915520 409731 391452 347918 180944
832430402318127616 410261 391832 348171 180984
832430402336339712 410664 392116 348380 180962
832430402354551680 410509 392001 348313 180965
832430402372763776 409983 391595 348063 180905
832430402390975872 409066 390985 347660 180901
832430402409187840 408155 390368 347262 180957
832430402427399936 407666 389982 347091 180917
832430402445612032 407497 389840 346972 180926
832430402463824000 407661 389957 347095 180996
832430402482036096 408068 390161 347241 180968
832430402500248192 408504 390489 347370 180930
832430402518460160 408828 390724 347505 180899
832430402536672256 409071 390964 347702 180924
832430402554884224 409218 391066 347734 180893
832430402573096320 409492 391291 347860 180917
832430402591308416 409896 391538 348003 180941
832430402609520384 410329 391799 348188 180923
832430402627732480 410533 391959 348236 180900
832430402645944576 410308 391799 348172 180902
832430402664156612 409732 391399 347902 180910
832430402682368256 408967 390822 347620 180961
832430402700579840 408187 390283 347215 180934
832430402718791552 407769 389934 347054 180892
832430402737003136 407592 389893 346970 180900
832430402755214720 407827 390059 347098 180944
832430402773426304 408222 390352 347295 180942
832430402791638016 408485 390507 347420 180994
832430402809849600 408671 390694 347514 180937
832430402828061184 408879 390777 347571 180978
832430402846272768 409160 391053 347689 180916
832430402864484480 409568 391303 347889 180933
832430402882696064 410048 391647 348057 180932
832430402900907648 410542 392005 348304 180936
832430402919119232 410715 392152 348339 180933
832430402937330944 410248 391823 348170 180958
832430402955542528 409524 391325 347935 180934
832430402973754112 408666 390705 347520 180934
832430402991965696 407901 390162 347150 180904
832430403010177408 407465 389779 346960 180909
832430403028388992 407551 389902 347061 180945
832430403046600576 407875 390141 347185 180966
832430403064812160 408345 390480 347371 180964
832430403083023872 408706 390694 347551 180935
832430403101235456 408906 390894 347603 180925
832430403119447040 409152 391087 347717 180968
832430403137658624 409451 391221 347845 180966
832430403155870336 409813 391473 347998 181008
832430403174081920 410205 391850 348171 180992
832430403192293504 410527 392007 348270 180939
832430403210505088 410509 391986 348258 180958
832430403228716800 410035 391650 348121 180950
832430403246928384 409284 391023 347733 180933
832430403265139968 408462 390449 347368 180942
832430403283351552 407875 390077 347115 180982
832430403301563192 407595 389893 347003 180883
832430403319775360 407742 390018 347070 180891
832430403337987584 408078 390233 347262 180972
832430403356199936 408487 390532 347382 180975
832430403374412160 408661 390672 347487 180934
832430403392624384 408842 390766 347598 180903
832430403410836736 409026 390918 347619 180894
832430403429048960 409397 391178 347796 180918
832430403447261312 409855 391571 347990 180939
832430403465473536 410439 391927 348242 180974
832430403483685760 410678 392126 348338 180931
832430403501898112 410504 391956 348286 180867
832430403520110336 409869 391550 347981 180910
832430403538322560 409016 390943 347651 180928
832430403556534912 408163 390382 347318 180924
832430403574747136 407681 389990 347042 180905
832430403592959360 407443 389786 346912 180945
832430403611171712 407702 389943 347041 180958
832430403629383936 408104 390166 347199 180894
832430403647596288 408520 390517 347384 180922
832430403665808512 408789 390771 347551 180888
832430403684020736 409043 391009 347676 180922
832430403702233088 409315 391157 347774 180958
832430403720445312 409653 391354 347910 180918
832430403738657536 410049 391660 348106 180955
832430403756869888 410545 392003 348283 180941
832430403775082112 410648 392043 348362 180981
832430403793294336 410228 391709 348150 180985
832430403811506688 409477 391262 347832 180988
832430403829718912 408618 390660 347530 180956
832430403847931136 408015 390234 347204 180960
832430403866143488 407694 389954 347081 180957
832430403884355712 407729 389957 347094 180959
832430403902568064 407996 390156 347209 180983
832430403920780288 408371 390409 347373 180966
832430403938992652 408689 390654 347494 180959
832430403957204480 408875 390850 347586 180957
832430403975416320 408957 390933 347637 180915
832430403993628160 409285 391109 347785 180922
832430404011840000 409643 391357 347908 180888
832430404030051840 410146 391725 348150 180930
832430404048263680 410542 391983 348251 180955
832430404066475520 410571 392043 348360 180988
832430404084687360 410049 391630 348124 180924
832430404102899200 409261 391079 347685 180913
832430404121111040 408431 390544 347409 180909
832430404139322880 407896 390091 347150 180983
832430404157534720 407571 389856 346961 180918
832430404175746432 407585 389866 346996 180966
832430404193958272 407857 390091 347150 180972
832430404212170112 408293 390431 347353 180937
832430404230381952 408681 390677 347387 180914
832430404248593792 408965 390856 347558 180897
832430404266805632 409107 391032 347657 180926
832430404285017472 409488 391228 347842 180949
832430404303229312 409933 391585 347977 180954
832430404321441152 410419 391943 348213 180939
832430404339652992 410643 392137 348328 180949
832430404357864832 410440 391902 348246 180945
832430404376076672 409816 391415 347925 180916
832430404394288512 408920 390799 347628 180936
832430404412500352 408105 390279 347231 180864
832430404430712192 407662 389995 347086 180910
832430404448924032 407556 389896 346978 180897
832430404467135872 407796 390040 347110 180903
832430404485347712 408100 390264 347252 180865
832430404503559552 408563 390607 347458 180908
832430404521771392 408773 390819 347472 180901
832430404539983232 408948 390916 347621 180923
832430404558195072 409141 391005 347660 180950
832430404576406860 409397 391231 347755 180919
832430404594619392 409912 391569 348035 180921
832430404612831872 410491 391949 348282 180947
832430404631044352 410607 392088 348350 180908
832430404649256832 410376 391893 348243 180924
832430404667469312 409661 391402 347913 180969
832430404685681792 408865 390838 347576 180938
832430404703894272 408073 390273 347213 180925
832430404722106752 407646 390000 347077 180905
832430404740319360 407617 389931 347008 180943
832430404758531840 407799 390038 347131 180959
832430404776744320 408208 390288 347249 180952
832430404794956800 408587 390607 347450 180907
832430404813169280 408866 390876 347606 180904
832430404831381760 409097 390957 347632 180938
832430404849594240 409354 391161 347773 180942
832430404867806720 409662 391440 347957 180943
832430404886019200 410238 391806 348177 180930
832430404904231680 410666 392056 348348 180894
832430404922444160 410626 392125 348326 180896
832430404940656640 410068 391709 348072 180950
832430404958869120 409246 391132 347752 180979
832430404977081600 408402 390494 347322 180898
