TIMESTAMP PPG0 PPG1 PPG2 AMBIENT
832430203699804672 409762 391820 348264 180881
832430203717986432 409810 391888 348305 180853
832430203736168320 409813 391813 348307 180903
832430203754350080 409744 391812 348266 180927
832430203772531968 409708 391774 348219 180898
832430203790713728 409637 391684 348205 180972
832430203808895616 409623 391688 348211 180960
832430203827077376 409655 391674 348218 180904
832430203845259264 409722 391766 348254 180938
832430203863441024 409764 391808 348239 180867
832430203881622912 409849 391759 348245 180873
832430203899804672 409797 391764 348247 180902
832430203917986432 409790 391828 348260 180936
832430203936168320 409836 391820 348304 180901
832430203954350080 409846 391806 348332 180931
832430203972531968 409730 391826 348320 180949
832430203990713728 409616 391709 348269 180916
832430204008895616 409616 391756 348230 180922
832430204027077376 409704 391794 348243 180973
832430204045259264 409747 391827 348307 180925
832430204063441024 409769 391809 348283 180953
832430204081622912 409735 391804 348294 180908
832430204099804672 409794 391831 348288 180942
832430204117986432 409804 391877 348331 180909
832430204136168320 409841 391909 348407 180907
832430204154350080 409869 391864 348348 180982
832430204172531968 409735 391778 348252 180938
832430204190713728 409716 391755 348272 180925
832430204208895616 409663 391798 348276 180913
832430204227077376 409708 391756 348308 180925
832430204245259264 409783 391768 348301 180855
832430204263441024 409824 391819 348248 180871
832430204281622912 409798 391829 348302 180928
832430204299804672 409900 391827 348344 180940
832430204317986432 409888 391880 348290 180940
832430204336168320 409861 391803 348256 180993
832430204354350080 409738 391792 348286 180903
832430204372531968 409681 391806 348269 180968
832430204390713728 409637 391756 348168 180932
832430204408895616 409683 391706 348204 180940
832430204427077376 409705 391744 348269 180959
832430204445259264 409746 391718 348269 180939
832430204463441024 409765 391765 348287 181001
832430204481622912 409799 391772 348275 180949
832430204499804672 409851 391863 348342 180984
832430204517986386 409824 391833 348323 180967
832430204536199168 409768 391804 348294 180981
832430204554411904 409763 391834 348339 180930
832430204572624768 409653 391767 348291 180960
832430204590837504 409553 391662 348275 180932
832430204609050368 409587 391749 348274 180935
832430204627263104 409733 391720 348332 180922
832430204645475968 409765 391792 348338 180961
832430204663688704 409779 391835 348336 180954
832430204681901568 409783 391762 348309 180930
832430204700114304 409838 391870 348342 180908
832430204718327168 409825 391918 348314 180961
832430204736539904 409804 391835 348309 180923
832430204754752768 409739 391795 348332 180942
832430204772965504 409575 391712 348224 180922
832430204791178368 409649 391730 348251 180911
832430204809391104 409695 391758 348259 180978
832430204827603840 409667 391790 348259 180902
832430204845816704 409710 391795 348248 180922
832430204864029440 409777 391824 348303 180930
832430204882242304 409897 391895 348299 180983
832430204900455040 409902 391883 348307 180937
832430204918667904 409819 391834 348293 180933
832430204936880640 409814 391865 348326 180954
832430204955093504 409710 391794 348294 180918
832430204973306240 409590 391774 348267 180956
832430204991519104 409613 391689 348226 180931
832430205009731840 409675 391782 348272 180959
832430205027944704 409715 391799 348264 180918
832430205046157440 409762 391840 348286 180951
832430205064370304 409787 391812 348282 180919
832430205082583040 409803 391854 348316 180925
832430205100795776 409828 391880 348331 180935
832430205119008640 409770 391800 348303 180936
832430205137221376 409700 391802 348300 180899
832430205155434240 409671 391752 348268 180940
832430205173646976 409582 391744 348297 180964
832430205191859840 409605 391747 348246 180943
832430205210072576 409573 391715 348254 180914
832430205228285440 409678 391778 348268 180938
832430205246498176 409693 391751 348231 180867
832430205264711040 409784 391851 348314 180950
832430205282923776 409815 391891 348308 180964
832430205301136640 409859 391900 348360 180958
832430205319349392 409815 391851 348273 180987
832430205337563008 409742 391792 348260 180939
832430205355776640 410031 391995 348414 180927
832430205373990144 410245 392105 348529 180907
832430205392203776 410568 392363 348661 180880
832430205410417280 410769 392553 348700 180906
832430205428630912 411149 392848 348877 180935
832430205446844416 411581 393116 349071 180886
832430205465058048 412159 393558 349343 180962
832430205483271680 412417 393758 349454 180955
832430205501485184 412091 393552 349274 180907
832430205519698816 411423 393026 348968 181027
832430205537912320 410497 392401 348593 180943
832430205556125952 409651 391704 348223 180896
832430205574339584 409211 391365 348018 180898
832430205592553088 409196 391317 347992 180893
832430205610766720 409426 391548 348141 180927
832430205628980224 409945 391887 348338 180993
832430205647193856 410341 392220 348553 180936
832430205665407360 410560 392384 348632 180953
832430205683620992 410793 392556 348770 180979
832430205701834624 411048 392718 348856 180904
832430205720048128 411376 392977 349014 180939
832430205738261760 411746 393242 349116 180935
832430205756475264 412127 393493 349265 180933
832430205774688896 412242 393577 349331 180969
832430205792902528 411795 393283 349180 180957
832430205811116032 411094 392814 348911 180996
832430205829329664 410320 392167 348516 180981
832430205847543168 409654 391718 348245 180940
832430205865756800 409322 391509 348117 180968
832430205883970304 409394 391563 348119 180937
832430205902183936 409675 391755 348209 180938
832430205920397568 410015 392035 348417 180964
832430205938611072 410312 392249 348547 180949
832430205956824636 410601 392369 348638 180979
832430205975038592 410791 392494 348693 180938
832430205993252608 410980 392714 348831 180922
832430206011466624 411401 392975 348998 180915
832430206029680640 411902 393321 349209 180941
832430206047894656 412386 393678 349364 180913
832430206066108672 412389 393629 349392 180935
832430206084322688 411754 393261 349135 180890
832430206102536704 410877 392618 348748 180941
832430206120750720 409985 391956 348384 181008
832430206138964736 409310 391464 348103 180961
832430206157178752 409009 391319 347984 180933
832430206175392768 409239 391448 348067 180941
832430206193606784 409661 391797 348219 180953
832430206211820800 410097 392131 348439 180941
832430206230034816 410440 392361 348649 180948
832430206248248832 410613 392468 348703 180924
832430206266462848 410859 392706 348798 180914
832430206284676864 411348 392901 348934 180957
832430206302890880 411660 393135 349112 180924
832430206321104896 412073 393542 349344 180944
832430206339318912 412295 393659 349399 180910
832430206357532928 412049 393410 349271 180919
832430206375746944 411363 392903 348990 180936
832430206393960960 410479 392354 348606 180928
832430206412174976 409818 391821 348339 181000
832430206430388992 409284 391505 348072 180922
832430206448603008 409190 391460 348040 180934
832430206466817024 409454 391701 348195 180925
832430206485031040 409861 391897 348290 180934
832430206503245056 410199 392164 348506 180921
832430206521459072 410457 392366 348572 180907
832430206539673088 410589 392460 348677 180949
832430206557887104 410822 392582 348759 180913
832430206576101120 411186 392830 348906 180914
832430206594315140 411690 393186 349069 180921
832430206612528256 412214 393601 349363 180851
832430206630741376 412383 393643 349431 180928
832430206648954496 411978 393389 349239 180865
832430206667167744 411186 392833 348894 180937
832430206685380864 410338 392274 348572 180991
832430206703593984 409632 391718 348225 180965
832430206721807104 409238 391360 348026 180944
832430206740020224 409151 391370 348048 180925
832430206758233344 409446 391577 348184 180891
832430206776446592 409934 391972 348399 180954
832430206794659712 410304 392190 348526 180902
832430206812872832 410575 392434 348630 180877
832430206831085952 410752 392545 348698 180877
832430206849299072 411163 392803 348913 180921
832430206867512192 411510 393023 349051 180896
832430206885725440 411983 393428 349245 180940
832430206903938560 412260 393680 349359 180909
832430206922151680 412205 393571 349313 180902
832430206940364800 411592 393148 349128 180975
832430206958577920 410776 392575 348707 180904
832430206976791040 409979 391971 348390 180962
832430206995004288 409421 391546 348088 180943
832430207013217408 409180 391413 348012 180918
832430207031430528 409331 391589 348152 180971
832430207049643648 409749 391854 348305 180977
832430207067856768 410210 392225 348489 180955
832430207086070016 410439 392367 348582 180951
832430207104283136 410664 392463 348681 180964
832430207122496256 410789 392507 348761 180916
832430207140709376 410984 392683 348834 180977
832430207158922496 411451 393005 349028 180954
832430207177135616 412017 393432 349284 180943
832430207195348864 412292 393591 349351 180973
832430207213561984 412155 393492 349272 180942
832430207231775118 411532 393066 349015 180916
832430207249989120 410782 392535 348731 180983
832430207268203136 410040 392029 348445 180990
832430207286417152 409364 391626 348162 181001
832430207304631040 409166 391450 348061 180966
832430207322845056 409331 391563 348123 180933
832430207341059072 409750 391735 348348 180975
832430207359273088 410216 392096 348475 180950
832430207377487104 410459 392358 348660 180937
832430207395700992 410724 392511 348750 180959
832430207413915008 410919 392584 348761 180907
832430207432129024 411344 392942 348930 180972
832430207450343040 411791 393263 349156 180923
832430207468557056 412241 393620 349377 180932
832430207486770944 412269 393615 349376 180882
832430207504984960 411881 393359 349201 180953
832430207523198976 411103 392761 348890 180941
832430207541412992 410254 392144 348468 180932
832430207559627008 409552 391655 348204 180931
832430207577840896 409228 391389 348064 180891
832430207596054912 409314 391427 348059 180896
832430207614268928 409605 391661 348235 180933
832430207632482944 409973 391909 348332 180884
832430207650696960 410424 392234 348577 180957
832430207668910848 410657 392434 348636 180919
832430207687124864 410746 392509 348696 180870
832430207705338880 410929 392693 348809 180891
832430207723552896 411236 392917 348931 180903
832430207741766912 411740 393181 349043 180873
832430207759980800 412190 393571 349328 180859
832430207778194816 412158 393605 349331 180876
832430207796408832 411744 393209 349134 180918
832430207814622848 410944 392663 348806 180920
832430207832836864 410174 392098 348426 180885
832430207851050752 409573 391689 348197 180918
832430207869264768 409288 391447 348094 180893
832430207887478764 409343 391507 348114 180908
832430207905692800 409560 391711 348282 180937
832430207923906816 409943 391967 348370 180954
832430207942120832 410373 392225 348516 180944
832430207960334848 410637 392458 348665 180978
832430207978548864 410834 392537 348772 180915
832430207996762880 411110 392795 348905 180926
832430208014976896 411616 393130 349137 180972
832430208033190912 412129 393458 349270 180928
832430208051404928 412437 393698 349411 180877
832430208069618944 412147 393615 349317 180891
832430208087832960 411490 393139 349069 180951
832430208106046976 410541 392408 348625 180967
832430208124260992 409674 391704 348239 180933
832430208142475008 409203 391340 348054 180918
832430208160689024 409129 391307 348018 180936
832430208178903040 409389 391519 348100 180898
832430208197117056 409779 391814 348294 180945
832430208215331072 410125 392134 348487 180910
832430208233545088 410531 392406 348617 180919
832430208251759104 410777 392507 348683 180898
832430208269973120 410935 392639 348783 180852
832430208288187136 411163 392766 348816 180907
832430208306401152 411619 393138 349085 180922
832430208324615168 412149 393440 349267 180924
832430208342829184 412296 393623 349364 180923
832430208361043200 412003 393449 349257 180927
832430208379257216 411266 392881 348933 180942
832430208397471232 410342 392210 348533 180920
832430208415685248 409702 391774 348289 180921
832430208433899264 409335 391527 348076 180920
832430208452113280 409375 391542 348145 180972
832430208470327296 409575 391721 348206 180921
832430208488541312 409805 391917 348323 180907
832430208506755328 410095 392138 348481 180885
832430208524969268 410378 392310 348552 180908
832430208543182464 410629 392462 348629 180890
832430208561395712 410982 392674 348798 180962
832430208579608832 411321 392932 349006 180945
832430208597822080 411858 393268 349188 180926
832430208616035200 412339 393694 349360 180953
832430208634248448 412320 393675 349385 180920
832430208652461568 411832 393300 349186 180947
832430208670674816 410939 392720 348861 180930
832430208688887936 410049 391995 348413 180893
832430208707101184 409478 391582 348158 180978
832430208725314304 409220 391312 348038 180961
832430208743527552 409317 391457 348155 180941
832430208761740672 409616 391713 348271 180973
832430208779953920 410003 392040 348394 180932
832430208798167040 410380 392320 348598 180938
832430208816380288 410697 392455 348709 181004
832430208834593408 410834 392695 348775 180969
832430208852806656 411166 392854 348949 180982
832430208871019776 411471 393044 349007 180955
832430208889233024 411922 393404 349210 180884
832430208907446144 412107 393558 349275 180901
832430208925659392 412054 393468 349292 180975
832430208943872512 411515 393098 349034 180872
832430208962085760 410722 392502 348674 180886
832430208980298880 409894 391928 348334 180928
832430208998512128 409330 391536 348135 180847
832430209016725248 409230 391470 348068 180876
832430209034938496 409456 391601 348128 180887
832430209053151616 409797 391879 348362 180924
832430209071364864 410120 392046 348468 180901
832430209089577984 410285 392191 348562 180839
832430209107791232 410545 392353 348659 180937
832430209126004480 410850 392547 348746 180970
832430209144217600 411095 392820 348870 180941
832430209162430780 411619 393183 349099 180927
832430209180644736 412150 393526 349339 180920
832430209198858752 412298 393722 349403 180960
832430209217072640 412079 393546 349274 180932
832430209235286656 411374 392970 348984 180909
832430209253500672 410547 392373 348645 180976
832430209271714560 409649 391783 348241 180935
832430209289928576 409162 391434 348050 180948
832430209308142592 409141 391441 348004 180945
832430209326356480 409500 391664 348151 180994
832430209344570496 409887 391884 348325 180923
832430209362784384 410316 392225 348488 180973
832430209380998400 410507 392413 348614 180922
832430209399212416 410789 392595 348755 180948
832430209417426304 411099 392801 348906 180953
832430209435640320 411402 393009 349009 180924
832430209453854336 411804 393344 349161 180860
832430209472068224 412181 393580 349338 180925
832430209490282240 412157 393580 349312 180942
832430209508496256 411720 393237 349161 180891
832430209526710144 410957 392745 348825 180927
832430209544924160 410167 392103 348507 180972
832430209563138176 409556 391624 348229 180971
832430209581352064 409278 391441 348068 180988
832430209599566080 409351 391493 348157 180924
832430209617779968 409651 391755 348305 180970
832430209635993984 410059 392065 348428 180948
832430209654208000 410413 392365 348597 180949
832430209672421888 410547 392421 348669 180954
832430209690635904 410626 392500 348811 180958
832430209708849920 410945 392671 348896 180936
832430209727063808 411362 393073 349086 180922
832430209745277824 411929 393412 349230 180933
832430209763491840 412376 393681 349413 180965
832430209781705728 412245 393548 349378 180954
832430209799919750 411732 393233 349156 180968
832430209818133760 410905 392529 348728 180974
832430209836347776 410050 391991 348452 181017
832430209854561792 409400 391594 348183 180928
832430209872775808 409179 391389 348112 180941
832430209890989824 409306 391431 348137 180974
832430209909203840 409672 391799 348315 181012
832430209927417856 410162 392105 348476 180947
832430209945631872 410525 392295 348667 180961
832430209963845888 410668 392467 348663 180961
832430209982059904 410871 392602 348694 180930
832430210000273920 411260 392955 348941 180970
832430210018487936 411635 393226 349050 180922
832430210036701952 412154 393563 349340 180949
832430210054915968 412369 393672 349453 181020
832430210073129984 411971 393414 349289 180954
832430210091344000 411247 392940 348931 180935
832430210109558016 410439 392341 348624 180942
832430210127772032 409766 391847 348327 180920
832430210145986048 409288 391517 348164 180966
832430210164200064 409318 391475 348072 180933
832430210182414080 409489 391599 348138 180873
832430210200628096 409952 392000 348316 180958
832430210218842112 410306 392209 348501 180972
832430210237056128 410559 392380 348657 180896
832430210255270144 410668 392437 348738 180932
832430210273484160 410848 392596 348727 180907
832430210291698176 411155 392857 348922 180961
832430210309912192 411663 393142 349051 180930
832430210328126208 412223 393650 349373 180892
832430210346340224 412271 393663 349364 180935
832430210364554240 411873 393366 349174 180937
832430210382768256 411072 392782 348856 180920
832430210400982272 410326 392249 348564 180956
832430210419196288 409651 391722 348281 180999
832430210437410254 409209 391445 348061 180990
832430210455624320 409189 391452 348050 180902
832430210473838336 409511 391639 348191 180974
832430210492052352 409907 391871 348344 180931
832430210510266240 410241 392183 348542 180922
832430210528480256 410593 392417 348624 180943
832430210546694272 410790 392586 348794 180920
832430210564908288 411087 392731 348907 180971
832430210583122304 411542 393051 349089 180934
832430210601336192 411959 393412 349226 180891
832430210619550208 412272 393639 349386 180969
832430210637764224 412149 393506 349300 180919
832430210655978240 411527 393054 348999 180953
832430210674192256 410616 392455 348662 180949
832430210692406144 409901 391903 348338 180968
832430210710620160 409382 391477 348172 180922
832430210728834176 409188 391386 348060 180899
832430210747048192 409411 391542 348170 180955
832430210765262208 409809 391791 348275 180908
832430210783476096 410221 392088 348468 180891
832430210801690112 410477 392338 348634 180843
832430210819904128 410554 392446 348635 180858
832430210838118144 410790 392567 348769 180906
832430210856332160 411077 392702 348863 180916
832430210874546048 411488 393001 348975 180880
832430210892760064 412031 393399 349258 180890
832430210910974080 412360 393633 349457 180917
832430210929188096 412149 393516 349337 180955
832430210947402112 411440 393038 349074 180933
832430210965616000 410561 392413 348627 180892
832430210983830016 409885 391978 348373 180915
832430211002044032 409400 391482 348141 180945
832430211020258048 409212 391380 348055 180915
832430211038472064 409438 391587 348173 180937
832430211056685952 409717 391766 348274 180866
832430211074899968 410146 392105 348479 180924
832430211093113900 410444 392287 348625 180932
832430211111326976 410742 392509 348703 180956
832430211129540096 410993 392684 348813 180935
832430211147753216 411337 392943 348990 180949
832430211165966464 411843 393256 349169 180924
832430211184179584 412276 393598 349330 180881
832430211202392704 412356 393678 349375 180956
832430211220605824 411920 393390 349215 180921
832430211238818944 411097 392874 348882 180939
832430211257032064 410191 392139 348475 180920
832430211275245312 409493 391622 348209 180961
832430211293458432 409165 391376 348058 180919
832430211311671552 409273 391474 348119 180949
832430211329884672 409660 391694 348236 180937
832430211348097792 410042 391969 348343 180894
832430211366310912 410422 392308 348554 180949
832430211384524160 410633 392494 348657 180944
832430211402737280 410705 392605 348709 180932
832430211420950400 410976 392684 348760 180922
832430211439163520 411266 392954 348994 180908
832430211457376640 411680 393210 349126 180919
832430211475589888 412179 393506 349329 180909
832430211493803008 412139 393490 349286 180897
832430211512016128 411627 393184 349116 180896
832430211530229248 410853 392651 348763 180952
832430211548442368 410031 392039 348435 180973
832430211566655488 409553 391664 348154 180954
832430211584868736 409301 391514 348103 180940
832430211603081856 409380 391561 348154 180954
832430211621294976 409690 391807 348289 180967
832430211639508096 410021 391978 348407 180943
832430211657721216 410382 392190 348525 180943
832430211675934336 410597 392391 348603 180906
832430211694147584 410830 392599 348740 180976
832430211712360704 411179 392886 348919 180964
832430211730573886 411582 393177 349076 180913
832430211748786944 412056 393523 349339 180955
832430211767000064 412444 393755 349477 180944
832430211785213184 412205 393536 349335 180862
832430211803426432 411483 393034 349005 180914
832430211821639552 410521 392322 348661 180868
832430211839852672 409704 391806 348316 180925
832430211858065792 409218 391491 348054 180925
832430211876278912 409173 391397 348097 180954
832430211894492032 409392 391545 348212 180938
832430211912705280 409820 391875 348339 180896
832430211930918400 410257 392084 348535 180952
832430211949131520 410521 392386 348772 180926
832430211967344640 410762 392502 348738 180898
832430211985557760 410958 392674 348854 180923
832430212003770880 411215 392851 348960 180872
832430212021984128 411674 393205 349140 180887
832430212040197248 412076 393486 349261 180886
832430212058410368 412243 393587 349406 180955
832430212076623488 411844 393295 349240 180910
832430212094836608 411145 392847 348902 180966
832430212113049728 410319 392203 348535 180932
832430212131262976 409645 391672 348216 180884
832430212149476096 409420 391443 348177 180971
832430212167689216 409370 391476 348084 180881
832430212185902336 409543 391671 348225 180885
832430212204115456 409967 391938 348374 180884
832430212222328704 410226 392192 348506 180921
832430212240541824 410438 392298 348575 180944
832430212258754944 410624 392481 348661 180919
832430212276968064 410922 392688 348822 180907
832430212295181184 411352 392926 348972 180911
832430212313394304 411875 393360 349167 180977
832430212331607552 412290 393590 349269 180906
832430212349820672 412323 393704 349441 180964
832430212368033864 411801 393281 349210 180950
832430212386247040 410931 392719 348871 180933
832430212404460160 410048 392054 348470 180981
832430212422673280 409443 391546 348192 180940
832430212440886528 409086 391373 347986 180954
832430212459099648 409259 391437 348103 180907
832430212477312768 409625 391682 348229 180917
832430212495525888 410004 391972 348455 180940
832430212513739008 410427 392254 348565 180948
832430212531952128 410611 392445 348666 180894
832430212550165376 410827 392613 348780 180868
832430212568378496 411104 392831 348897 180900
832430212586591616 411514 393135 349065 180920
832430212604804736 412025 393461 349307 180962
832430212623017856 412212 393602 349324 180918
832430212641230976 412044 393504 349262 180913
832430212659444224 411460 393055 348987 180882
832430212677657344 410655 392455 348636 180897
832430212695870464 409916 391920 348376 180947
832430212714083584 409338 391519 348096 180933
832430212732296704 409253 391454 348085 180950
832430212750509952 409511 391570 348158 180921
832430212768723072 409863 391795 348317 180950
832430212786936192 410216 392039 348519 180916
832430212805149312 410429 392293 348614 180924
832430212823362432 410569 392428 348662 180927
832430212841575552 410833 392595 348719 180988
832430212859788800 411183 392790 348878 180966
832430212878001920 411595 393218 349123 180925
832430212896215040 412098 393501 349288 180901
832430212914428160 412315 393656 349369 180922
832430212932641280 412089 393465 349300 180972
832430212950854400 411379 392956 348976 180934
832430212969067648 410550 392352 348646 180993
832430212987280768 409690 391792 348275 180982
832430213005493888 409216 391417 348031 180941
832430213023706992 409094 391315 348040 180920
832430213041920128 409421 391590 348154 180971
832430213060133248 409868 391929 348376 180959
832430213078346368 410247 392154 348487 180899
832430213096559616 410495 392354 348581 180916
832430213114772736 410776 392534 348687 181007
832430213132985856 411037 392718 348802 180902
832430213151198976 411459 393043 349025 180969
832430213169412096 411908 393376 349191 180942
832430213187625216 412298 393612 349315 180931
832430213205838464 412164 393559 349274 180889
832430213224051584 411602 393184 349085 180930
832430213242264704 410855 392625 348829 180917
832430213260477824 410129 392081 348497 180949
832430213278690944 409508 391623 348221 180890
832430213296904064 409204 391488 348094 180921
832430213315117312 409341 391476 348148 180890
832430213333330432 409728 391764 348306 180894
832430213351543552 410225 392114 348507 180905
832430213369756672 410463 392328 348593 180922
832430213387969792 410613 392441 348693 180956
832430213406183040 410785 392565 348682 180967
832430213424396160 410997 392657 348766 180921
832430213442609280 411460 393040 349042 180970
832430213460822400 412003 393408 349252 180978
832430213479035520 412289 393586 349366 180942
832430213497248640 412147 393542 349320 180952
832430213515461888 411629 393157 349136 180952
832430213533675008 410879 392593 348733 180951
832430213551888128 410076 392040 348433 180925
832430213570101248 409483 391631 348167 180903
832430213588314368 409198 391392 348075 180938
832430213606527488 409339 391469 348129 180922
832430213624740736 409743 391795 348357 180974
832430213642953856 410129 392072 348481 180877
832430213661166978 410551 392372 348657 180936
832430213679380224 410709 392529 348761 180983
832430213697593472 410896 392611 348797 180891
832430213715806720 411269 392862 348922 180926
832430213734020096 411790 393294 349182 180885
832430213752233344 412296 393605 349380 180893
832430213770446592 412386 393702 349498 180942
832430213788659840 411991 393478 349332 180938
832430213806873088 411240 392904 348998 180942
832430213825086464 410302 392253 348537 180863
832430213843299712 409677 391772 348277 180909
832430213861512960 409263 391474 348167 180891
832430213879726208 409203 391430 348094 180937
832430213897939456 409490 391635 348229 180926
832430213916152832 410030 391970 348409 180966
832430213934366080 410431 392267 348604 180944
832430213952579328 410603 392411 348621 180905
832430213970792576 410757 392541 348700 180898
832430213989005824 410963 392616 348744 180938
832430214007219200 411194 392899 348934 180927
832430214025432448 411726 393322 349185 180975
832430214043645696 412206 393661 349375 180944
832430214061858944 412264 393654 349394 180908
832430214080072192 411849 393310 349240 180932
832430214098285568 411042 392724 348929 180992
832430214116498816 410216 392215 348547 180943
832430214134712064 409657 391810 348285 180940
832430214152925312 409352 391486 348118 180937
832430214171138560 409346 391534 348116 180934
832430214189351936 409503 391728 348266 180960
832430214207565184 409907 391961 348344 180945
832430214225778432 410280 392194 348571 180966
832430214243991680 410617 392469 348659 180948
832430214262204928 410775 392595 348747 180900
832430214280418304 411116 392822 348898 180952
832430214298631542 411530 393200 349083 180960
832430214316845440 411992 393469 349224 180920
832430214335059328 412311 393757 349389 180970
832430214353273216 412174 393607 349377 180915
832430214371487104 411583 393171 349121 180945
832430214389700992 410706 392458 348687 180923
832430214407914880 409864 391897 348373 180913
832430214426128768 409331 391578 348163 180954
832430214444342656 409190 391410 348040 180918
832430214462556544 409372 391531 348110 180949
832430214480770432 409690 391830 348281 180923
832430214498984320 410139 392123 348437 180941
832430214517198208 410581 392321 348617 180934
832430214535412096 410726 392514 348707 180917
832430214553625984 410926 392651 348832 180943
832430214571839744 411129 392883 348887 180938
832430214590053632 411473 393099 349001 180901
832430214608267520 411985 393505 349284 180957
832430214626481408 412252 393610 349349 180930
832430214644695296 412043 393466 349231 180891
832430214662909184 411365 392952 348933 180891
832430214681123072 410555 392371 348614 180932
832430214699336960 409896 391882 348327 180918
832430214717550848 409474 391620 348184 180972
832430214735764736 409385 391576 348119 180954
832430214753978624 409583 391669 348247 180943
832430214772192512 409881 391942 348330 180962
832430214790406400 410132 392120 348430 180905
832430214808620288 410425 392316 348576 180870
832430214826834176 410696 392510 348687 180935
832430214845048064 410926 392683 348814 180906
832430214863261952 411366 392997 348969 180954
832430214881475840 411889 393302 349214 180943
832430214899689728 412390 393707 349420 180917
832430214917903616 412425 393747 349384 180881
832430214936117460 412048 393464 349262 180951
832430214954329728 411123 392878 348935 180894
832430214972541952 410143 392169 348477 180874
832430214990754304 409407 391645 348150 180920
832430215008966528 409178 391376 348124 180905
832430215027178752 409209 391483 348066 180907
832430215045391104 409622 391707 348242 180933
832430215063603328 410055 392023 348455 180951
832430215081815680 410421 392250 348543 180950
832430215100027904 410695 392530 348643 180949
832430215118240128 410893 392638 348809 180914
832430215136452480 411065 392802 348936 180921
832430215154664704 411434 393063 349028 180894
832430215172876928 411898 393313 349214 180917
832430215191089280 412250 393489 349338 180931
832430215209301504 412247 393536 349327 180935
832430215227513728 411737 393195 349176 180972
832430215245726080 410917 392591 348783 180908
832430215263938304 410109 392085 348447 180935
832430215282150656 409576 391647 348228 180981
832430215300362880 409298 391453 348072 180896
832430215318575104 409476 391629 348189 180891
832430215336787456 409764 391841 348318 180863
832430215354999680 410118 392097 348455 180923
832430215373211904 410365 392284 348533 180949
832430215391424256 410610 392415 348627 180907
832430215409636480 410809 392554 348717 180958
832430215427848704 411172 392847 348907 180945
832430215446061056 411636 393155 349039 180976
832430215464273280 412149 393540 349317 180919
832430215482485632 412384 393744 349399 180911
832430215500697856 412162 393552 349332 180919
832430215518910080 411493 393112 349047 180904
832430215537122432 410601 392455 348663 181001
832430215555334656 409880 391824 348349 180978
832430215573546928 409268 391455 348100 180955
832430215591759360 409204 391405 348063 180925
832430215609971840 409465 391559 348144 180951
832430215628184192 409862 391882 348308 180910
832430215646396672 410272 392206 348491 180888
832430215664609152 410527 392469 348668 180915
832430215682821632 410775 392525 348724 180874
832430215701033984 411057 392671 348811 180927
832430215719246464 411302 392923 348890 180890
832430215737458944 411747 393234 349161 180907
832430215755671424 412145 393592 349358 180941
832430215773883776 412240 393600 349320 180955
832430215792096256 411825 393304 349203 180906
832430215810308736 411093 392783 348871 180891
832430215828521088 410308 392172 348485 180893
832430215846733568 409730 391691 348192 180886
832430215864946048 409336 391450 348081 180863
832430215883158528 409358 391534 348178 180885
832430215901370880 409677 391796 348272 180923
832430215919583360 410078 391995 348390 180918
832430215937795840 410376 392218 348533 180957
832430215956008320 410538 392397 348660 180916
832430215974220672 410670 392552 348669 180932
832430215992433152 410998 392659 348830 180956
832430216010645632 411378 392932 349013 180887
832430216028857984 411894 393341 349228 180926
832430216047070464 412302 393701 349400 180922
832430216065282944 412291 393694 349361 180930
832430216083495424 411859 393316 349140 180893
832430216101707776 411005 392737 348828 180962
832430216119920256 410057 392046 348445 180956
832430216138132736 409462 391650 348181 180902
832430216156345088 409156 391393 348106 180894
832430216174557568 409235 391472 348135 181005
832430216192770048 409622 391692 348270 180950
832430216210982498 409974 391967 348446 180943
832430216229195520 410396 392217 348496 180925
832430216247408512 410691 392444 348703 180960
832430216265621504 410891 392606 348759 180962
832430216283834496 411206 392853 348920 180916
832430216302047360 411654 393162 349102 180941
832430216320260352 412128 393501 349318 180938
832430216338473344 412294 393638 349405 180941
832430216356686336 412018 393429 349254 180918
832430216374899328 411401 392979 348994 180924
832430216393112320 410596 392430 348666 180967
832430216411325312 409816 391810 348306 180904
832430216429538176 409367 391559 348079 180935
832430216447751168 409331 391484 348062 180894
832430216465964160 409507 391658 348161 180901
832430216484177152 409850 391909 348324 180868
832430216502390144 410239 392196 348499 180908
832430216520603136 410465 392303 348604 180920
832430216538816000 410630 392451 348658 180945
832430216557028992 410845 392585 348765 180958
832430216575241984 411253 392867 348924 180959
832430216593454976 411671 393150 349075 180904
832430216611667968 412110 393488 349340 180898
832430216629880960 412352 393589 349460 180942
832430216648093952 412056 393458 349288 180960
832430216666306816 411353 392920 348965 180960
832430216684519808 410384 392352 348598 180977
832430216702732800 409684 391745 348223 180939
832430216720945792 409223 391407 348098 180891
832430216739158784 409267 391418 348051 180913
832430216757371776 409474 391585 348184 180904
832430216775584768 409868 391946 348350 180866
832430216793797632 410338 392158 348553 180916
832430216812010624 410632 392370 348658 180914
832430216830223616 410773 392609 348762 180961
832430216848436608 411071 392774 348853 180972
832430216866649524 411480 393073 348983 180899
832430216884862592 412008 393432 349192 180947
832430216903075712 412357 393718 349398 180926
832430216921288832 412276 393637 349394 180986
832430216939502080 411738 393263 349156 180979
832430216957715200 410894 392586 348729 180931
832430216975928320 410114 392060 348506 180973
832430216994141440 409519 391653 348246 180951
832430217012354560 409270 391467 348119 180949
832430217030567680 409442 391552 348181 180955
832430217048780928 409778 391772 348324 180975
832430217066994048 410211 392156 348482 180968
832430217085207168 410561 392342 348576 180942
832430217103420288 410687 392486 348687 180911
832430217121633408 410833 392576 348745 180966
832430217139846528 411055 392736 348880 180932
832430217158059776 411453 393057 349057 180926
832430217176272896 412012 393437 349270 180933
832430217194486016 412287 393673 349380 180927
832430217212699136 412201 393570 349377 180966
832430217230912256 411599 393063 349071 180964
832430217249125376 410756 392475 348729 180965
832430217267338624 410012 391976 348389 180923
832430217285551744 409419 391580 348124 180952
832430217303764864 409190 391427 348078 180938
832430217321977984 409356 391588 348111 180932
832430217340191104 409631 391764 348230 180905
832430217358404352 410228 392033 348423 180873
832430217376617472 410545 392320 348584 180914
832430217394830592 410666 392473 348630 180936
832430217413043712 410894 392648 348779 180908
832430217431256832 411230 392883 348939 180920
832430217449469952 411857 393269 349174 180921
832430217467683200 412288 393660 349390 180927
832430217485896320 412384 393765 349448 180939
832430217504109502 411962 393435 349326 180936
832430217522322560 411270 392888 348974 180932
832430217540535680 410291 392207 348581 180916
832430217558748800 409582 391744 348266 180919
832430217576962048 409211 391407 348113 180917
832430217595175168 409246 391380 348086 180931
832430217613388288 409537 391707 348221 181001
832430217631601408 409960 391971 348372 180927
832430217649814528 410406 392313 348591 180956
832430217668027648 410672 392483 348667 180947
832430217686240896 410844 392586 348704 180919
832430217704454016 410950 392672 348847 180924
832430217722667136 411243 392877 348940 180898
832430217740880256 411644 393251 349090 180933
832430217759093376 412210 393606 349325 180913
832430217777306496 412284 393601 349383 180948
832430217795519744 411824 393282 349211 180970
832430217813732864 411038 392713 348838 180942
832430217831945984 410196 392147 348501 180970
832430217850159104 409665 391695 348262 180975
832430217868372224 409303 391494 348131 180948
832430217886585472 409338 391507 348098 180945
832430217904798592 409658 391720 348254 180930
832430217923011712 410001 391966 348408 180942
832430217941224832 410312 392210 348504 180905
832430217959437952 410586 392378 348641 180896
832430217977651072 410771 392497 348709 180890
832430217995864320 411073 392797 348872 180942
832430218014077440 411428 393104 349000 180887
832430218032290560 411995 393507 349245 180871
832430218050503680 412446 393723 349430 180921
832430218068716800 412195 393605 349372 180922
832430218086929920 411548 393175 349106 180888
832430218105143168 410563 392463 348686 180892
832430218123356288 409775 391858 348294 180907
832430218141569488 409248 391426 348080 180902
832430218159782656 409130 391376 348007 180933
832430218177995776 409359 391539 348064 180854
832430218196208896 409770 391841 348294 180893
832430218214422144 410172 392106 348487 180914
832430218232635264 410482 392410 348648 180887
832430218250848384 410774 392564 348718 180881
832430218269061504 411009 392744 348843 180905
832430218287274624 411204 392895 348943 180911
832430218305487744 411609 393155 349078 180902
832430218323700992 412028 393465 349306 180875
832430218341914112 412202 393607 349347 180916
832430218360127232 411985 393417 349265 180905
832430218378340352 411234 392913 348929 180874
832430218396553472 410449 392336 348546 180953
832430218414766592 409740 391759 348232 180916
832430218432979840 409388 391508 348105 180934
832430218451192960 409338 391496 348081 180944
832430218469406080 409572 391691 348165 180954
832430218487619200 409852 391932 348338 180893
832430218505832320 410246 392066 348421 180886
832430218524045568 410428 392281 348610 180943
832430218542258688 410650 392423 348646 180902
832430218560471808 410901 392635 348803 180896
832430218578684928 411327 392949 348965 180853
832430218596898048 411804 393269 349129 180855
832430218615111168 412271 393686 349348 180940
832430218633324416 412374 393672 349413 180890
832430218651537536 411873 393389 349220 180901
832430218669750656 411091 392822 348811 180901
832430218687963776 410210 392160 348453 180875
832430218706176896 409453 391537 348149 180873
832430218724390016 409110 391328 348045 180899
832430218742603264 409195 391404 348080 180854
832430218760816384 409558 391660 348163 180887
832430218779029474 409997 391930 348350 180881
832430218797242880 410359 392207 348543 180953
832430218815456256 410587 392363 348667 180901
832430218833669504 410868 392625 348743 180915
832430218851882880 411157 392801 348823 180885
832430218870096128 411516 393041 349039 180905
832430218888309504 411924 393400 349242 180889
832430218906522752 412205 393590 349352 180851
832430218924736128 412241 393539 349360 180964
832430218942949376 411646 393142 349073 180923
832430218961162752 410742 392530 348729 180925
832430218979376000 410008 391968 348420 180902
832430218997589376 409479 391578 348185 180914
832430219015802624 409207 391476 348069 180943
832430219034016000 409432 391606 348164 180958
832430219052229376 409901 391862 348258 180936
832430219070442624 410222 392169 348490 180930
832430219088656000 410380 392335 348576 180919
832430219106869248 410580 392437 348689 180972
832430219125082624 410780 392600 348718 180937
832430219143295872 411209 392758 348879 180885
832430219161509248 411625 393137 349094 180939
832430219179722496 412052 393518 349228 180893
832430219197935872 412293 393670 349328 180924
832430219216149120 412106 393472 349272 180936
832430219234362496 411509 393131 349090 180955
832430219252575744 410544 392432 348674 180892
832430219270789120 409846 391874 348341 180925
832430219289002496 409333 391447 348046 180876
832430219307215744 409116 391332 348003 180937
832430219325429120 409421 391629 348186 180961
832430219343642368 409895 391878 348345 180950
832430219361855744 410294 392141 348522 180976
832430219380068992 410549 392315 348645 180968
832430219398282368 410754 392488 348716 180906
832430219416495564 411113 392776 348825 180955
832430219434708608 411370 393038 348977 180919
832430219452921600 411874 393353 349233 180940
832430219471134592 412207 393622 349359 180962
832430219489347584 412223 393623 349366 180968
832430219507560704 411788 393278 349170 180937
832430219525773696 411076 392751 348866 180989
832430219543986688 410250 392136 348496 180969
832430219562199680 409600 391707 348239 180906
832430219580412672 409333 391484 348087 180947
832430219598625664 409359 391571 348082 180907
832430219616838784 409614 391772 348249 180947
832430219635051776 410118 392091 348459 180993
832430219653264768 410473 392313 348592 180950
832430219671477760 410635 392440 348662 180928
832430219689690752 410692 392491 348686 180894
832430219707903744 410985 392689 348826 180937
832430219726116736 411440 392991 348994 180928
832430219744329856 411967 393420 349204 180932
832430219762542848 412298 393686 349409 180928
832430219780755840 412188 393638 349284 180884
832430219798968832 411680 393240 349100 180925
832430219817181824 410908 392708 348830 180925
832430219835394816 410085 392121 348452 180909
832430219853607808 409519 391643 348205 180947
832430219871820928 409234 391440 348112 180944
832430219890033920 409264 391497 348127 180956
832430219908246912 409634 391744 348225 180962
832430219926459904 410040 392047 348386 180910
832430219944672896 410474 392350 348591 180961
832430219962885888 410671 392430 348700 180952
832430219981099008 410844 392643 348814 180994
832430219999312000 411186 392778 348925 180893
832430220017524992 411678 393179 349128 180935
832430220035737984 412241 393650 349361 180982
832430220053950962 412309 393693 349436 180918
832430220072162304 412034 393495 349301 180931
832430220090373632 411308 392941 348950 180927
832430220108584960 410432 392355 348597 180914
832430220126796416 409759 391835 348323 180965
832430220145007744 409301 391554 348065 180933
832430220163219072 409272 391387 348050 180924
832430220181430400 409490 391582 348146 180953
832430220199641728 410000 391928 348388 180933
832430220217853184 410304 392206 348512 180901
832430220236064512 410607 392461 348641 180933
832430220254275840 410823 392586 348772 181019
832430220272487168 410914 392718 348774 180981
832430220290698624 411170 392802 348918 180904
832430220308909952 411686 393184 349167 180954
832430220327121280 412157 393532 349344 180909
832430220345332608 412361 393648 349418 180934
832430220363543936 411961 393384 349261 180930
832430220381755392 411204 392836 348911 180967
832430220399966720 410433 392269 348554 180951
832430220418178048 409732 391786 348232 180952
832430220436389376 409340 391516 348126 180921
832430220454600704 409330 391442 348090 180941
832430220472812160 409473 391646 348150 180888
832430220491023488 409859 391914 348297 180952
832430220509234816 410275 392166 348488 180917
832430220527446144 410585 392367 348649 180933
832430220545657472 410801 392545 348741 180934
832430220563868928 411019 392664 348849 180934
832430220582080256 411449 392993 348981 180924
832430220600291584 412046 393429 349255 180943
832430220618502912 412417 393729 349427 180930
832430220636714368 412287 393650 349358 180915
832430220654925696 411693 393249 349103 180891
832430220673137024 410758 392533 348740 180916
832430220691348388 409977 392000 348402 180927
832430220709561472 409387 391557 348140 180955
832430220727774592 409212 391409 348078 180948
832430220745987712 409416 391587 348152 180949
832430220764200960 409785 391863 348298 180944
832430220782414080 410143 392103 348495 180948
832430220800627200 410519 392331 348552 180909
832430220818840320 410758 392554 348720 180936
832430220837053440 410871 392653 348802 180948
832430220855266560 411131 392786 348960 180910
832430220873479808 411501 393031 349051 180920
832430220891692928 412049 393402 349326 180940
832430220909906048 412342 393648 349381 180942
832430220928119168 412136 393565 349321 180924
832430220946332288 411462 393083 349022 180907
832430220964545408 410677 392465 348702 180926
832430220982758656 409946 391956 348334 180952
832430221000971776 409520 391640 348189 180903
832430221019184896 409373 391547 348149 180958
832430221037398016 409497 391599 348150 180883
832430221055611136 409761 391845 348291 180856
832430221073824384 410135 392132 348442 180965
832430221092037504 410366 392355 348601 180952
832430221110250624 410613 392447 348732 180893
832430221128463744 410934 392655 348788 180916
832430221146676864 411220 392852 348859 180899
832430221164889984 411790 393277 349126 180931
832430221183103232 412283 393643 349360 180913
832430221201316352 412462 393773 349445 180926
832430221219529472 411994 393395 349237 180866
832430221237742592 411272 392900 348904 180941
832430221255955712 410327 392186 348494 180873
832430221274168832 409564 391618 348230 180939
832430221292382080 409247 391436 348082 180876
832430221310595200 409280 391442 348080 180922
832430221328808374 409529 391699 348234 180921
832430221347021440 409953 391982 348351 180922
832430221365234560 410349 392237 348523 180925
832430221383447680 410643 392465 348662 180898
832430221401660928 410828 392619 348794 180869
832430221419874048 411116 392763 348885 180934
832430221438087168 411442 392995 349014 180950
832430221456300288 411857 393317 349219 180973
832430221474513408 412210 393560 349386 180852
832430221492726528 412214 393582 349401 180905
832430221510939776 411747 393239 349145 180900
832430221529152896 411025 392688 348817 180973
832430221547366016 410201 392121 348437 180939
832430221565579136 409604 391678 348277 180931
832430221583792256 409330 391535 348135 180884
832430221602005376 409426 391606 348175 180914
832430221620218624 409687 391740 348232 180850
832430221638431744 410081 392011 348443 180902
832430221656644864 410375 392240 348601 180899
832430221674857984 410557 392401 348663 180890
832430221693071104 410777 392525 348720 180905
832430221711284352 411066 392775 348857 180900
832430221729497472 411569 393064 349061 180965
832430221747710592 412077 393462 349232 180915
832430221765923712 412386 393735 349441 180941
832430221784136832 412286 393628 349380 180969
832430221802349952 411679 393202 349133 180938
832430221820563200 410690 392423 348656 180942
832430221838776320 409882 391922 348388 180958
832430221856989440 409179 391383 348075 180944
832430221875202560 409117 391352 348024 180937
832430221893415680 409358 391473 348133 180973
832430221911628800 409787 391847 348281 180955
832430221929842048 410246 392175 348537 180931
832430221948055168 410538 392434 348634 180905
832430221966268360 410770 392598 348731 180903
832430221984480768 411101 392768 348779 180916
832430222002693120 411376 392987 348936 180924
832430222020905344 411745 393276 349119 180884
832430222039117696 412157 393591 349294 180877
832430222057330048 412173 393594 349338 180860
832430222075542400 411872 393362 349212 180893
832430222093754624 411235 392830 348879 180913
832430222111966976 410378 392268 348536 180916
832430222130179328 409740 391798 348288 180934
832430222148391552 409285 391513 348097 180900
832430222166603904 409410 391572 348120 180891
832430222184816256 409701 391760 348247 180918
832430222203028480 409961 391951 348351 180857
832430222221240832 410321 392209 348550 180919
832430222239453184 410520 392415 348664 180934
832430222257665536 410657 392477 348703 180941
832430222275877760 410902 392704 348771 180922
832430222294090112 411298 392944 349005 180922
832430222312302464 411757 393239 349103 180854
832430222330514688 412222 393576 349339 180879
832430222348727040 412309 393690 349379 180891
832430222366939392 411900 393354 349187 180855
832430222385151616 411086 392799 348880 180899
832430222403363968 410265 392126 348471 180917
832430222421576320 409524 391620 348209 180889
832430222439788672 409133 391334 348055 180852
832430222458000896 409262 391398 348065 180915
832430222476213248 409571 391693 348197 180950
832430222494425600 409975 392022 348421 180938
832430222512637824 410331 392283 348558 180890
832430222530850176 410620 392365 348582 180860
832430222549062528 410903 392620 348749 180922
832430222567274752 411218 392838 348917 180920
832430222585487104 411523 393109 349039 180874
832430222603699344 412062 393534 349296 180928
832430222621912448 412273 393638 349356 180852
832430222640125568 412125 393478 349300 180865
832430222658338688 411507 393036 349022 180881
832430222676551808 410631 392465 348685 180931
832430222694764800 409928 391930 348376 180911
832430222712977920 409378 391473 348104 180999
832430222731191040 409341 391483 348078 180989
832430222749404160 409549 391653 348171 180987
832430222767617280 409872 391934 348339 180954
832430222785830400 410272 392198 348525 180933
832430222804043392 410563 392407 348652 180978
832430222822256512 410616 392518 348713 180916
832430222840469632 410807 392570 348789 180887
832430222858682752 411192 392829 348925 180893
832430222876895872 411641 393146 349122 180931
832430222895108992 412205 393561 349328 180977
832430222913321984 412375 393730 349415 180911
832430222931535104 412097 393503 349321 180938
832430222949748224 411544 393023 349044 180932
832430222967961344 410606 392365 348639 180927
832430222986174464 409814 391816 348349 180931
832430223004387584 409259 391505 348115 180848
832430223022600576 409183 391406 348117 180884
832430223040813696 409353 391561 348116 180881
832430223059026816 409841 391865 348322 180916
832430223077239936 410258 392125 348479 180939
832430223095453056 410580 392387 348645 180943
832430223113666176 410705 392462 348661 180937
832430223131879168 411028 392715 348863 180973
832430223150092288 411468 393072 349026 180965
832430223168305408 411959 393397 349282 180955
832430223186518528 412270 393680 349372 180905
832430223204731648 412272 393655 349398 180939
832430223222944768 411681 393252 349132 180887
832430223241157806 411024 392634 348763 180967
832430223259370880 410137 392045 348426 180923
832430223277584000 409549 391629 348225 180942
832430223295797120 409312 391520 348109 180924
832430223314010368 409420 391521 348118 180937
832430223332223488 409726 391756 348202 180922
832430223350436608 410127 392067 348454 180898
832430223368649728 410415 392258 348569 180938
832430223386862848 410520 392420 348627 180934
832430223405075968 410754 392567 348777 180945
832430223423289216 410962 392757 348882 180973
832430223441502336 411347 393001 349048 180919
832430223459715456 411899 393359 349198 180919
832430223477928576 412257 393637 349360 180913
832430223496141696 412206 393521 349267 180967
832430223514354816 411712 393213 349120 180961
832430223532568064 410905 392616 348753 180962
832430223550781184 410135 392088 348481 180931
832430223568994304 409522 391604 348180 180922
832430223587207424 409264 391430 348067 180943
832430223605420544 409344 391578 348127 180906
832430223623633792 409647 391780 348303 180960
832430223641846912 410148 392113 348462 181047
832430223660060032 410479 392369 348574 180968
832430223678273152 410681 392469 348678 180948
832430223696486272 410834 392609 348743 180898
832430223714699392 411193 392826 348880 180880
832430223732912640 411743 393188 349103 180924
832430223751125760 412221 393633 349351 180914
832430223769338880 412412 393736 349465 180934
832430223787552000 412099 393553 349335 180969
832430223805765120 411360 392983 349015 181004
832430223823978240 410417 392285 348594 180930
832430223842191488 409716 391705 348264 180961
832430223860404608 409333 391489 348095 180999
832430223878617792 409286 391375 347995 180926
832430223896830976 409514 391622 348178 180936
832430223915044096 409922 391885 348361 180925
832430223933257216 410390 392234 348592 180953
832430223951470464 410631 392432 348659 180939
832430223969683584 410791 392579 348767 180985
832430223987896704 410927 392722 348834 180958
832430224006109824 411204 392861 348870 180934
832430224024322944 411677 393134 349050 180976
832430224042536064 412149 393582 349355 180949
832430224060749312 412282 393601 349419 180906
832430224078962432 411880 393288 349199 180970
832430224097175552 411155 392738 348872 180945
832430224115388672 410287 392106 348523 180932
832430224133601792 409696 391769 348275 180947
832430224151814912 409394 391545 348133 180943
832430224170028160 409403 391551 348134 180921
832430224188241280 409596 391691 348253 180981
832430224206454400 409892 391955 348378 180951
832430224224667520 410304 392190 348554 180948
832430224242880640 410574 392338 348625 180988
832430224261093888 410844 392546 348734 180954
832430224279307008 411063 392737 348863 180952
832430224297520128 411437 393056 349007 180959
832430224315733248 412033 393474 349309 180990
832430224333946368 412475 393774 349471 180974
832430224352159488 412332 393689 349443 180968
832430224370372736 411707 393379 349181 180990
832430224388585856 411121 392604 348687 180941
832430224406798976 409866 391940 348362 180990
832430224425012096 409141 391545 348190 180981
832430224443225216 409211 391458 348099 180975
832430224461438336 409542 391541 348120 180913
832430224479651584 409661 391837 348285 180932
832430224497864704 410082 392089 348423 180945
832430224516077824 410399 392373 348599 180919
832430224534290920 410830 392548 348672 180951
832430224552503168 411088 392683 348770 180954
832430224570715392 411125 392916 348929 180909
832430224588927744 411378 393112 349151 180896
832430224607139968 412034 393412 349265 180894
832430224625352192 412461 393585 349323 180924
832430224643564544 412005 393440 349305 180988
832430224661776768 411292 393023 349039 180957
832430224679989120 410689 392410 348598 180935
832430224698201344 409879 391883 348351 180952
832430224716413568 409363 391590 348175 180949
832430224734625920 409303 391605 348139 180913
832430224752838144 409619 391746 348232 180904
832430224771050368 410081 391960 348344 180920
832430224789262720 410204 392218 348559 180976
832430224807474944 410411 392338 348686 180960
832430224825687168 410826 392494 348743 180984
832430224843899520 411008 392592 348789 180909
832430224862111744 411280 392928 348969 180876
832430224880324096 411722 393324 349182 180906
832430224898536320 412220 393638 349359 180923
832430224916748544 412475 393678 349346 180910
832430224934960896 412003 393469 349280 180950
832430224953173120 411199 392932 348951 180926
832430224971385344 410351 392281 348587 180939
832430224989597696 409638 391729 348255 180927
832430225007809920 409132 391376 348046 180925
832430225026022144 409169 391450 348053 180922
832430225044234496 409620 391675 348130 180915
832430225062446720 410055 392016 348310 180931
832430225080659072 410325 392253 348496 180967
832430225098871296 410531 392391 348614 180913
832430225117083520 410919 392581 348704 180944
832430225135295872 411095 392821 348864 180888
832430225153508096 411482 393092 349065 180911
832430225171720388 411872 393415 349230 180931
832430225189933568 412285 393624 349312 180955
832430225208146688 412264 393565 349326 180898
832430225226359808 411628 393212 349135 180913
832430225244573056 410854 392680 348849 180942
832430225262786176 410111 392104 348486 180976
832430225280999296 409546 391630 348171 180957
832430225299212416 409284 391535 348098 180983
832430225317425536 409477 391684 348222 180984
832430225335638656 409825 391901 348394 181010
832430225353851904 410199 392140 348512 180959
832430225372065024 410453 392290 348609 180882
832430225390278144 410596 392350 348687 180871
832430225408491264 410811 392557 348769 181007
832430225426704384 411156 392795 348926 180942
832430225444917504 411555 393047 349099 180888
832430225463130752 412097 393474 349307 180893
832430225481343872 412362 393689 349429 180964
832430225499556992 412182 393517 349354 180909
832430225517770112 411681 393194 349134 181003
832430225535983232 410787 392507 348709 180914
832430225554196352 409957 391980 348403 180969
832430225572409600 409391 391550 348090 180938
832430225590622720 409189 391402 348047 180959
832430225608835840 409402 391546 348133 180953
832430225627048960 409882 391885 348360 180977
832430225645262080 410278 392204 348537 180911
832430225663475328 410559 392401 348698 180940
832430225681688448 410774 392593 348802 180952
832430225699901568 411043 392721 348852 180960
832430225718114688 411339 392966 349041 180934
832430225736327808 411799 393283 349198 180915
832430225754540928 412254 393611 349350 180949
832430225772754176 412253 393644 349433 180982
832430225790967296 411835 393325 349203 180957
832430225809180366 411152 392842 348901 180909
832430225827393536 410346 392285 348606 180944
832430225845606656 409643 391766 348281 180910
832430225863819776 409292 391439 348076 180884
832430225882033024 409300 391444 348123 180948
832430225900246144 409661 391689 348256 180969
832430225918459264 410030 391995 348402 180962
832430225936672384 410338 392247 348490 180907
832430225954885504 410545 392448 348635 180917
832430225973098624 410626 392518 348719 180938
832430225991311872 410969 392635 348852 180950
832430226009524992 411348 392984 348979 180928
832430226027738112 411913 393364 349232 180971
832430226045951232 412271 393600 349362 180967
832430226064164352 412207 393594 349376 180948
832430226082377472 411830 393356 349222 180987
832430226100590720 411058 392784 348864 180966
832430226118803840 410154 392160 348464 180953
832430226137016960 409511 391706 348235 180927
832430226155230080 409183 391528 348103 180978
832430226173443200 409227 391511 348092 180921
832430226191656448 409528 391708 348242 180897
832430226209869568 410040 392016 348408 180961
832430226228082688 410450 392313 348639 180922
832430226246295808 410759 392514 348747 180972
832430226264508928 410927 392613 348801 180918
832430226282722048 411181 392802 348940 180993
832430226300935296 411618 393130 349132 180961
832430226319148416 412161 393526 349307 180920
832430226337361536 412474 393792 349529 180911
832430226355574656 412166 393574 349368 180939
832430226373787776 411487 393114 349051 180938
832430226392000896 410681 392474 348702 180967
832430226410214144 409831 391881 348335 180955
832430226428427264 409349 391539 348090 180887
832430226446640352 409272 391449 348079 180934
832430226464852864 409477 391612 348184 180911
832430226483065344 409917 391893 348368 180961
832430226501277824 410305 392187 348593 180913
832430226519490304 410596 392400 348713 180950
832430226537702784 410716 392530 348762 180939
832430226555915264 410908 392695 348815 180957
832430226574127744 411135 392843 348888 180920
832430226592340224 411562 393107 349086 180908
832430226610552832 412127 393514 349309 180920
832430226628765312 412309 393678 349403 180910
832430226646977792 412040 393473 349316 180922
832430226665190272 411380 392924 348989 180966
832430226683402752 410557 392431 348575 180945
832430226701615232 409775 391794 348277 180890
832430226719827712 409319 391521 348114 180917
832430226738040192 409333 391543 348116 180938
832430226756252672 409508 391652 348187 180896
832430226774465152 409894 391897 348315 180921
832430226792677632 410257 392130 348471 180940
832430226810890112 410562 392410 348697 180958
832430226829102592 410763 392589 348738 180918
832430226847315072 410980 392725 348849 180920
832430226865527552 411360 392932 349001 180941
832430226883740160 411923 393383 349201 180927
832430226901952640 412375 393697 349448 180958
832430226920165120 412420 393744 349444 180988
832430226938377600 411792 393286 349163 180943
832430226956590080 410993 392708 348869 180947
832430226974802560 410074 392064 348476 180908
832430226993015040 409503 391636 348241 180902
832430227011227520 409337 391505 348139 180984
832430227029440000 409450 391625 348138 180978
832430227047652480 409695 391848 348277 180924
832430227065864960 410076 392113 348476 180945
832430227084077450 410447 392386 348590 180948
832430227102291200 410684 392512 348709 180920
832430227120504960 410808 392659 348733 180934
832430227138718848 411093 392808 348907 180941
832430227156932608 411408 393047 349041 180937
832430227175146368 411941 393442 349284 180927
832430227193360128 412281 393701 349437 180948
832430227211574016 412221 393577 349363 181031
832430227229787776 411694 393169 349158 180977
832430227248001536 410809 392593 348759 180926
832430227266215424 410090 391977 348472 180947
832430227284429184 409518 391582 348133 180953
832430227302642944 409303 391445 348063 180906
832430227320856704 409444 391561 348173 180921
832430227339070592 409714 391743 348272 180882
832430227357284352 410034 392030 348424 180919
832430227375498112 410424 392206 348582 180881
832430227393712000 410731 392425 348759 180936
832430227411925760 410873 392600 348789 180918
832430227430139520 411333 392947 348942 180869
832430227448353280 411762 393242 349100 180894
832430227466567168 412288 393657 349347 180923
832430227484780928 412457 393724 349452 180908
832430227502994688 412078 393424 349256 180959
832430227521208576 411347 392922 349017 180945
832430227539422336 410415 392283 348588 180923
832430227557636096 409592 391672 348263 180916
832430227575849856 409300 391483 348128 181000
832430227594063744 409270 391430 348076 180944
832430227612277504 409480 391669 348189 180938
832430227630491264 409863 391946 348385 180914
832430227648705152 410271 392216 348505 180944
832430227666918912 410691 392503 348738 180971
832430227685132672 410798 392600 348717 180899
832430227703346432 411014 392803 348853 180955
832430227721560324 411306 392969 348982 180993
832430227739774336 411769 393304 349180 180981
832430227757988352 412162 393539 349345 180942
832430227776202368 412188 393606 349382 180955
832430227794416384 411777 393327 349152 180953
832430227812630400 411047 392728 348782 180910
832430227830844416 410203 392161 348465 180888
832430227849058432 409589 391728 348197 180971
832430227867272448 409303 391488 348046 180900
832430227885486464 409378 391520 348130 180925
832430227903700480 409677 391745 348283 180944
832430227921914496 410026 391994 348422 180933
832430227940128512 410311 392212 348496 180945
832430227958342528 410594 392384 348612 180911
832430227976556544 410837 392576 348774 180923
832430227994770560 411086 392782 348859 180899
832430228012984576 411458 393041 348993 180897
832430228031198592 412032 393457 349253 180873
832430228049412608 412407 393741 349467 180916
832430228067626624 412268 393649 349413 180934
832430228085840640 411671 393235 349157 180951
832430228104054656 410817 392593 348743 180989
832430228122268672 409910 391969 348374 180928
832430228140482688 409222 391489 348118 180922
832430228158696704 409149 391362 348013 180935
832430228176910720 409398 391602 348143 180986
832430228195124736 409760 391867 348293 180897
832430228213338752 410228 392098 348437 180893
832430228231552768 410513 392333 348571 180855
832430228249766784 410770 392507 348727 180955
832430228267980800 410942 392717 348848 180930
832430228286194816 411224 392916 348966 180941
832430228304408832 411568 393178 349116 180897
832430228322622848 412091 393518 349314 180903
832430228340836864 412334 393686 349398 180988
832430228359050820 412078 393464 349321 180987
832430228377262720 411347 392966 349030 180947
832430228395474560 410527 392319 348638 180955
832430228413686400 409865 391908 348330 180943
832430228431898240 409429 391560 348131 180994
832430228450110080 409453 391649 348178 180957
832430228468321920 409633 391776 348185 180966
832430228486533760 409983 392042 348367 180975
832430228504745600 410323 392283 348546 180991
832430228522957440 410529 392361 348604 180964
832430228541169280 410709 392446 348666 181008
832430228559381120 411015 392677 348846 181010
832430228577592960 411310 392874 348951 180919
832430228595804672 411837 393270 349213 180983
832430228614016512 412353 393689 349432 180974
832430228632228352 412417 393735 349468 180949
832430228650440192 412069 393466 349277 180990
832430228668652032 411226 392893 348955 181000
832430228686863872 410354 392203 348562 180986
832430228705075712 409602 391687 348186 180907
832430228723287552 409162 391423 348017 180944
832430228741499392 409303 391416 348100 180953
832430228759711232 409615 391697 348287 180944
832430228777923072 409994 392012 348441 180954
832430228796134912 410399 392260 348565 180966
832430228814346752 410635 392433 348657 180941
832430228832558592 410845 392604 348838 180977
832430228850770432 411230 392870 348976 180974
832430228868982272 411560 393137 349090 180932
832430228887194112 411986 393437 349252 180953
832430228905405952 412368 393693 349388 180956
832430228923617792 412205 393568 349297 181008
832430228941829632 411667 393202 349086 180995
832430228960041472 410890 392638 348761 180942
832430228978253312 410032 392005 348380 180918
832430228996465028 409513 391614 348178 180969
832430229014677760 409251 391444 348122 180910
832430229032890496 409448 391595 348200 180956
832430229051103232 409841 391836 348302 180911
832430229069315840 410236 392111 348484 180902
832430229087528576 410459 392350 348589 180930
832430229105741312 410640 392483 348690 180987
832430229123954048 410785 392527 348715 180931
832430229142166656 411110 392800 348814 180906
832430229160379392 411554 393145 349077 180903
832430229178592128 412139 393544 349333 180943
832430229196804864 412355 393669 349449 180942
832430229215017472 412113 393452 349372 180952
832430229233230208 411585 393144 349145 180999
832430229251442944 410764 392563 348776 180955
832430229269655680 409899 391981 348386 180925
832430229287868416 409372 391578 348151 180960
832430229306081024 409204 391428 348055 180904
832430229324293760 409367 391488 348090 180906
832430229342506496 409812 391779 348275 180933
832430229360719232 410265 392245 348526 180964
832430229378931840 410519 392376 348675 180883
832430229397144576 410738 392526 348732 180938
832430229415357312 411055 392763 348897 180982
832430229433570048 411443 393022 349020 181003
832430229451782656 411919 393348 349225 180964
832430229469995392 412319 393717 349437 180973
832430229488208128 412285 393652 349420 180914
832430229506420864 411913 393450 349244 180973
832430229524633600 411175 392831 348924 180990
832430229542846208 410360 392209 348545 180975
832430229561058944 409595 391684 348211 180919
832430229579271680 409318 391479 348095 180984
832430229597484416 409356 391544 348127 181004
832430229615697024 409702 391750 348274 180959
832430229633909756 410206 392117 348491 180915
832430229652122880 410572 392309 348653 180994
832430229670336000 410763 392502 348706 180988
832430229688549120 410808 392627 348724 180966
832430229706762368 410990 392647 348810 180950
832430229724975488 411356 392947 349008 180953
832430229743188608 411924 393370 349171 180957
832430229761401728 412390 393734 349430 180911
832430229779614848 412276 393638 349373 180908
832430229797827968 411729 393290 349185 180906
832430229816041216 410963 392737 348849 180909
832430229834254336 410206 392206 348511 180976
832430229852467456 409574 391708 348296 180927
832430229870680576 409274 391516 348121 180941
832430229888893696 409365 391503 348118 181018
832430229907106816 409648 391713 348215 181035
832430229925320064 410074 392045 348447 180990
832430229943533184 410374 392251 348574 181001
832430229961746304 410697 392461 348704 180983
832430229979959424 410970 392686 348836 181001
832430229998172544 411178 392815 348908 180915
832430230016385792 411636 393181 349110 180937
832430230034598912 412200 393606 349390 180930
832430230052812032 412421 393753 349448 180919
832430230071025152 412088 393570 349346 180905
832430230089238272 411440 393007 349010 180871
832430230107451392 410562 392382 348716 180940
832430230125664640 409807 391804 348348 180959
832430230143877760 409296 391479 348126 180899
832430230162090880 409206 391426 348072 180971
832430230180304000 409476 391587 348203 180985
832430230198517120 409851 391863 348359 180961
832430230216730240 410325 392216 348567 180889
832430230234943488 410595 392374 348727 180954
832430230253156608 410777 392527 348744 180964
832430230271369742 410959 392674 348810 180982
832430230289581568 411255 392860 348926 181004
832430230307793408 411638 393185 349157 180955
832430230326005248 412225 393602 349377 180960
832430230344217088 412337 393670 349366 180975
832430230362428928 411947 393431 349270 181007
832430230380640768 411233 392891 348935 180962
832430230398852608 410332 392281 348569 180921
832430230417064448 409724 391872 348302 181000
832430230435276288 409373 391553 348105 180956
832430230453488128 409366 391541 348119 181031
832430230471699968 409514 391643 348201 180913
832430230489911808 409916 391852 348372 180898
832430230508123520 410223 392179 348494 180873
832430230526335360 410526 392403 348681 180915
832430230544547200 410734 392571 348755 180943
832430230562759040 410998 392733 348813 180913
832430230580970880 411412 393017 348991 180939
832430230599182720 411934 393371 349247 180954
832430230617394560 412318 393713 349451 180953
832430230635606400 412328 393730 349451 180926
832430230653818240 411755 393305 349172 180954
832430230672030080 410972 392683 348820 180975
832430230690241920 410075 392079 348491 180992
832430230708453760 409398 391562 348182 180968
832430230726665600 409138 391337 348052 180955
832430230744877440 409291 391540 348121 180964
832430230763089280 409691 391729 348277 180919
832430230781301120 410101 392073 348458 180926
832430230799512960 410514 392330 348560 180922
832430230817724800 410737 392525 348692 180893
832430230835936640 410962 392682 348798 180901
832430230854148480 411219 392843 348867 180879
832430230872360320 411489 393078 349051 180971
832430230890572160 411966 393368 349237 180924
832430230908783940 412334 393729 349459 180945
832430230926995840 412170 393555 349409 180943
832430230945207680 411566 393105 349117 180971
832430230963419520 410630 392524 348742 180964
832430230981631360 409941 391939 348340 180941
832430230999843200 409537 391704 348156 180982
832430231018055040 409319 391540 348105 180953
832430231036266880 409524 391629 348218 180965
832430231054478720 409825 391883 348335 180931
832430231072690560 410188 392103 348429 180930
832430231090902400 410388 392280 348554 180958
832430231109114240 410633 392426 348643 180902
832430231127326080 410859 392594 348726 180855
832430231145537792 411229 392853 348918 180917
832430231163749632 411698 393195 349172 180955
832430231181961472 412275 393620 349329 180941
832430231200173312 412405 393715 349492 180904
832430231218385152 412127 393504 349366 180989
832430231236596992 411372 392969 348968 180968
832430231254808832 410410 392324 348540 180953
832430231273020672 409632 391732 348259 180942
832430231291232512 409213 391340 348059 180910
832430231309444352 409269 391413 348061 180958
832430231327656192 409613 391705 348198 180989
832430231345868032 410032 391969 348354 180950
832430231364079872 410365 392296 348571 180949
832430231382291712 410628 392416 348651 180931
832430231400503552 410895 392574 348783 180971
832430231418715392 411101 392813 348940 180928
832430231436927232 411382 392996 349003 180977
832430231455139072 411822 393349 349151 180921
832430231473350912 412222 393611 349393 180913
832430231491562752 412249 393589 349389 180954
832430231509774592 411767 393281 349246 180989
832430231527986432 411026 392701 348813 180943
832430231546198150 410189 392148 348513 180916
832430231564411264 409522 391735 348209 180886
832430231582624384 409301 391430 348138 180936
832430231600837504 409357 391483 348136 180869
832430231619050752 409748 391782 348335 180947
832430231637263872 410110 392125 348504 180936
832430231655476992 410378 392321 348598 180899
832430231673690112 410459 392396 348663 180869
832430231691903232 410757 392522 348717 180917
832430231710116352 411012 392673 348783 180906
832430231728329600 411476 392979 349000 180944
832430231746542720 411999 393449 349275 180927
832430231764755840 412396 393745 349489 180933
832430231782968960 412332 393571 349327 180900
832430231801182080 411737 393200 349154 180941
832430231819395200 410825 392585 348734 180965
832430231837608448 410009 391962 348414 181040
832430231855821568 409332 391585 348099 180975
832430231874034688 409103 391347 348027 180974
832430231892247808 409265 391506 348099 180901
832430231910460928 409710 391830 348318 180935
832430231928674176 410065 392058 348461 180880
832430231946887296 410418 392309 348621 180922
832430231965100416 410666 392466 348679 180903
832430231983313536 410958 392723 348869 180948
832430232001526656 411317 393006 348997 180965
832430232019739776 411669 393214 349106 180889
832430232037953024 412147 393543 349292 180884
832430232056166144 412287 393660 349388 180925
832430232074379264 411937 393331 349175 180902
832430232092592384 411253 392943 348939 180896
832430232110805504 410451 392346 348634 180944
832430232129018624 409746 391896 348286 180928
832430232147231872 409310 391488 348048 180896
832430232165444992 409327 391527 348160 180978
832430232183658112 409596 391707 348211 180945
832430232201871280 409932 391961 348379 180876
832430232220084480 410358 392221 348565 180942
832430232238297728 410552 392393 348687 180918
832430232256510976 410700 392481 348752 180924
832430232274724224 410940 392625 348770 180915
832430232292937344 411306 392903 348932 180920
832430232311150592 411762 393305 349153 180893
832430232329363840 412306 393696 349388 180972
832430232347577088 412300 393711 349446 180939
832430232365790336 411926 393350 349230 180951
832430232384003584 411151 392883 348932 180916
832430232402216704 410292 392218 348577 180921
832430232420429952 409599 391690 348285 180977
832430232438643200 409244 391474 348131 180937
832430232456856448 409236 391430 348141 180921
832430232475069696 409537 391671 348206 180932
832430232493282944 409963 391918 348324 180931
832430232511496064 410356 392254 348538 180884
832430232529709312 410648 392493 348653 180917
832430232547922560 410939 392561 348712 180967
832430232566135808 411134 392809 348871 180939
832430232584349056 411571 393172 349149 180957
832430232602562304 412033 393527 349311 180947
832430232620775424 412283 393708 349391 180976
832430232638988672 412159 393605 349380 180962
832430232657201920 411562 393125 349047 180987
832430232675415168 410826 392554 348749 180999
832430232693628416 409978 391985 348439 180955
832430232711841664 409449 391630 348240 180962
832430232730054784 409319 391476 348136 180974
832430232748268032 409441 391655 348200 180947
832430232766481280 409847 391909 348318 180972
832430232784694528 410220 392261 348489 180964
832430232802907776 410510 392395 348684 180954
832430232821121024 410680 392497 348732 180906
832430232839334144 410855 392611 348829 180956
832430232857547460 411052 392769 348843 180926
832430232875761408 411564 393092 349118 180925
832430232893975296 412086 393523 349323 180909
832430232912189312 412350 393710 349433 180926
832430232930403200 412155 393518 349313 180944
832430232948617088 411467 393079 349054 180977
832430232966831104 410683 392506 348746 180952
832430232985044992 409907 391844 348356 180904
832430233003258880 409335 391526 348157 180922
832430233021472768 409252 391393 348095 180880
832430233039686784 409463 391564 348170 180915
832430233057900672 409863 391848 348371 180925
832430233076114560 410230 392131 348496 180922
832430233094328576 410534 392367 348608 180877
832430233112542464 410836 392603 348784 180950
832430233130756352 411021 392782 348866 180994
832430233148970368 411345 393028 349002 180924
832430233167184256 411843 393376 349186 180953
832430233185398144 412341 393705 349410 180976
832430233203612032 412325 393751 349393 180961
832430233221826048 411920 393414 349241 180966
832430233240039936 411052 392781 348922 180939
832430233258253824 410259 392156 348511 180931
832430233276467840 409568 391683 348247 180925
832430233294681728 409211 391425 348116 180934
832430233312895616 409231 391479 348071 180918
832430233331109632 409627 391707 348231 180927
832430233349323520 410140 392109 348452 180949
832430233367537408 410503 392333 348626 180937
832430233385751424 410734 392532 348727 180967
832430233403965312 410875 392650 348822 180950
832430233422179200 411015 392736 348918 180923
832430233440393088 411372 392978 349016 180917
832430233458607104 411841 393359 349235 180914
832430233476820992 412242 393641 349325 180917
832430233495034904 412209 393622 349333 180928
832430233513248000 411713 393213 349152 180923
832430233531461120 410851 392618 348859 180934
832430233549674240 410182 392053 348480 180940
832430233567887488 409539 391678 348229 180944
832430233586100608 409287 391485 348145 180933
832430233604313728 409423 391533 348134 180927
832430233622526848 409701 391799 348258 180923
832430233640739968 410058 392038 348450 180917
832430233658953088 410394 392308 348604 181018
832430233677166336 410609 392466 348706 180906
832430233695379456 410850 392674 348796 180903
832430233713592576 411228 392885 348912 180890
832430233731805696 411680 393190 349068 180824
832430233750018816 412268 393608 349368 180907
832430233768231936 412432 393778 349431 180910
832430233786445184 412223 393615 349356 180945
832430233804658304 411462 393088 348983 180890
832430233822871424 410579 392400 348621 180957
832430233841084544 409676 391743 348249 180857
832430233859297664 409315 391435 348052 180961
832430233877510912 409253 391422 348066 180904
832430233895724032 409489 391571 348178 180906
832430233913937152 409944 391913 348372 180934
832430233932150272 410303 392233 348577 181017
832430233950363392 410664 392489 348731 180976
832430233968576512 410821 392597 348746 180948
832430233986789760 410985 392655 348800 180900
832430234005002880 411298 392937 348992 180947
832430234023216000 411695 393258 349196 180874
832430234041429120 412129 393519 349388 180931
832430234059642240 412325 393669 349423 180955
832430234077855360 411929 393427 349271 180930
832430234096068608 411184 392882 348951 180877
832430234114281728 410332 392236 348521 180890
832430234132494890 409713 391774 348302 180978
832430234150707968 409369 391535 348118 180916
832430234168921088 409429 391578 348130 180916
832430234187134208 409694 391743 348252 180956
832430234205347456 409946 392004 348385 180956
832430234223560576 410255 392239 348535 180972
832430234241773696 410568 392426 348632 180951
832430234259986816 410736 392534 348776 180977
832430234278199936 411049 392765 348878 180977
832430234296413056 411464 393004 349024 181029
832430234314626304 412005 393400 349259 180983
832430234332839424 412396 393670 349413 180952
832430234351052544 412419 393681 349443 180915
832430234369265664 411861 393336 349233 180962
832430234387478784 410967 392699 348854 180902
832430234405691904 410081 392040 348436 180907
832430234423905152 409385 391539 348152 180911
832430234442118272 409159 391456 348016 180966
832430234460331392 409339 391484 348080 180924
832430234478544512 409670 391762 348243 180928
832430234496757632 410106 392116 348474 180973
832430234514970880 410410 392327 348636 180959
832430234533184000 410750 392564 348759 180896
832430234551397120 410981 392689 348885 180947
832430234569610240 411224 392930 348983 180978
832430234587823360 411519 393131 349095 180925
832430234606036480 411996 393465 349341 180945
832430234624249728 412226 393654 349401 180987
832430234642462848 412097 393543 349311 180889
832430234660675968 411498 393123 349120 180869
832430234678889088 410634 392426 348699 180880
832430234697102208 409936 391923 348383 180986
832430234715315328 409460 391595 348172 181045
832430234733528576 409452 391520 348155 180972
832430234751741696 409636 391675 348229 181029
832430234769954816 409940 391928 348317 180951
832430234788168018 410245 392232 348492 180944
832430234806381184 410408 392323 348607 180896
832430234824594304 410631 392509 348656 180961
832430234842807424 410885 392653 348785 180906
832430234861020672 411234 392902 348866 180896
832430234879233792 411733 393262 349149 180970
832430234897446912 412241 393569 349389 180914
832430234915660032 412392 393743 349431 180917
832430234933873152 412097 393534 349309 180919
832430234952086272 411374 392993 349006 180928
832430234970299520 410460 392321 348597 180925
832430234988512640 409636 391756 348292 180959
832430235006725760 409190 391352 348057 180932
832430235024938880 409196 391403 348047 180919
832430235043152000 409543 391714 348199 180992
832430235061365120 409966 391951 348396 180964
832430235079578368 410363 392264 348530 180945
832430235097791488 410641 392548 348685 180948
832430235116004608 410813 392596 348804 180921
832430235134217728 411155 392835 348923 180890
832430235152430848 411499 393130 349034 180956
832430235170644096 411940 393428 349247 180984
832430235188857216 412245 393707 349423 180958
832430235207070336 412240 393586 349379 180934
832430235225283456 411707 393226 349124 180951
832430235243496576 411010 392765 348834 180979
832430235261709696 410174 392164 348453 180976
832430235279922944 409610 391721 348303 180949
832430235298136064 409286 391478 348114 180904
832430235316349184 409491 391546 348172 180934
832430235334562304 409837 391835 348316 180975
832430235352775424 410220 392123 348482 180992
832430235370988544 410463 392369 348681 181030
832430235389201792 410588 392428 348670 180915
832430235407414912 410709 392542 348734 180968
832430235425628032 411053 392792 348901 180905
832430235443841146 411535 393108 349126 180941
832430235462054272 412085 393527 349290 180951
832430235480267392 412369 393714 349477 180961
832430235498480512 412224 393597 349437 180975
832430235516693760 411647 393234 349209 180986
832430235534906880 410840 392703 348836 181027
832430235553120000 410067 392096 348458 181003
832430235571333120 409526 391607 348222 181026
832430235589546240 409238 391374 348112 181009
832430235607759360 409335 391506 348173 180965
832430235625972608 409768 391803 348293 181008
832430235644185728 410238 392155 348528 181018
832430235662398848 410555 392318 348625 180950
832430235680611968 410809 392544 348723 180995
832430235698825088 410976 392665 348799 180966
832430235717038208 411362 393017 349058 180984
832430235735251456 411877 393407 349230 180996
832430235753464576 412357 393687 349412 180965
832430235771677696 412389 393731 349469 180955
832430235789890816 412019 393419 349266 180995
832430235808103936 411293 392836 349017 180940
832430235826317056 410446 392274 348621 180932
832430235844530304 409763 391820 348387 180952
832430235862743424 409375 391501 348187 180964
832430235880956544 409346 391497 348170 180989
832430235899169664 409637 391698 348304 180976
832430235917382784 410071 392014 348417 180960
832430235935596032 410456 392319 348643 180987
832430235953809152 410638 392510 348732 180924
832430235972022272 410785 392534 348717 180893
832430235990235392 410935 392701 348835 180965
832430236008448512 411302 392932 349030 180940
832430236026661632 411849 393327 349228 180931
832430236044874880 412334 393719 349457 181031
832430236063088000 412330 393707 349381 180985
832430236081301124 411871 393353 349193 180990
832430236099515136 411128 392824 348868 180971
832430236117729152 410309 392232 348558 180952
832430236135943168 409685 391769 348302 180959
832430236154157184 409320 391536 348139 180939
832430236172371200 409419 391585 348177 180992
832430236190585216 409630 391760 348260 181006
832430236208799232 410043 392000 348450 180932
832430236227013248 410371 392254 348608 180943
832430236245227264 410694 392481 348703 180995
832430236263441280 410822 392585 348731 180950
832430236281655296 411185 392831 348912 180953
832430236299869312 411664 393117 349059 180956
832430236318083328 412166 393508 349325 180926
832430236336297344 412475 393715 349486 180960
832430236354511360 412281 393634 349424 180975
832430236372725376 411593 393135 349146 180964
832430236390939392 410605 392454 348717 180943
832430236409153408 409880 391881 348392 181007
832430236427367424 409434 391588 348166 180952
832430236445581440 409295 391512 348139 180964
832430236463795456 409478 391601 348198 180919
832430236482009472 409736 391838 348288 180957
832430236500223488 410248 392222 348513 180947
832430236518437504 410541 392379 348640 180957
832430236536651520 410784 392523 348720 180944
832430236554865536 410914 392605 348743 180915
832430236573079552 411128 392792 348880 180947
832430236591293568 411577 393122 349133 181012
832430236609507584 412106 393500 349303 180949
832430236627721600 412336 393666 349458 180968
832430236645935616 412115 393485 349329 180984
832430236664149632 411344 392960 349008 180995
832430236682363648 410516 392360 348666 180967
832430236700577664 409899 391863 348408 180943
832430236718791628 409441 391508 348126 180952
832430236737005696 409326 391576 348105 180906
832430236755219712 409599 391675 348228 180974
832430236773433728 409910 391904 348467 180981
832430236791647744 410233 392175 348575 181023
832430236809861760 410458 392379 348613 180948
832430236828075776 410811 392562 348783 180938
832430236846289792 411054 392750 348852 180958
832430236864503808 411415 392996 349010 180924
832430236882717824 411899 393321 349218 180949
832430236900931840 412360 393722 349449 180914
832430236919145856 412367 393774 349433 180947
832430236937359872 411871 393441 349211 180967
832430236955573888 411055 392808 348886 180959
832430236973787904 410127 392126 348556 180985
832430236992001920 409469 391626 348234 180952
832430237010215936 409258 391411 348105 180992
832430237028429952 409366 391528 348089 180944
832430237046643968 409711 391804 348282 180982
832430237064857984 410090 392042 348459 180897
832430237083072000 410472 392331 348667 180955
832430237101286016 410745 392490 348721 180913
832430237119500032 410914 392633 348827 180936
832430237137714048 411180 392855 348996 180950
832430237155928064 411507 393061 349099 180957
832430237174142080 411882 393345 349203 180956
832430237192356096 412353 393678 349482 180986
832430237210570112 412259 393629 349407 181031
832430237228784128 411713 393243 349107 180988
832430237246998144 410872 392622 348778 181000
832430237265212160 410106 392052 348396 180993
832430237283426176 409596 391684 348223 181035
832430237301640192 409380 391534 348130 180996
832430237319854208 409423 391595 348179 181019
832430237338068224 409749 391851 348317 180975
832430237356282132 410120 392136 348510 180949
832430237374496128 410375 392322 348613 180958
832430237392710144 410615 392503 348672 180933
832430237410924160 410866 392601 348734 180987
832430237429138048 411223 392857 348922 180914
832430237447352064 411676 393199 349127 180954
832430237465566080 412161 393573 349363 180904
832430237483780096 412420 393823 349497 180961
832430237501994112 412165 393604 349348 180983
832430237520208000 411499 393085 349049 180954
832430237538422016 410582 392498 348680 181007
832430237556636032 409734 391904 348311 180982
832430237574850048 409286 391511 348148 180989
832430237593064064 409219 391368 348093 180945
832430237611277952 409475 391622 348222 180941
832430237629491968 409916 391946 348402 180934
832430237647705984 410357 392288 348554 180973
832430237665920000 410641 392466 348674 180952
832430237684134016 410800 392604 348768 180914
832430237702347904 411070 392761 348827 180879
832430237720561920 411374 392973 348988 180919
832430237738775936 411813 393312 349185 180925
832430237756989952 412202 393633 349426 180944
832430237775203968 412261 393645 349425 180960
832430237793417856 411864 393369 349229 180986
832430237811631872 411142 392783 348894 180995
832430237829845888 410296 392200 348529 180962
832430237848059904 409691 391790 348222 180945
832430237866273920 409397 391496 348126 180973
832430237884487808 409443 391581 348175 180966
832430237902701824 409723 391721 348260 180941
832430237920915840 410039 392008 348431 180942
832430237939129856 410426 392243 348576 180937
832430237957343872 410547 392366 348629 180962
832430237975557760 410753 392461 348732 180934
832430237993771776 411058 392690 348856 180885
832430238011985778 411417 392934 348987 180898
832430238030198912 411939 393397 349244 180933
832430238048412032 412310 393679 349440 180899
832430238066625152 412401 393721 349434 180925
832430238084838400 411776 393280 349128 180982
832430238103051520 410959 392702 348842 180996
832430238121264640 410049 392083 348454 180977
832430238139477760 409441 391621 348151 181003
832430238157690880 409135 391368 348049 180974
832430238175904000 409342 391476 348155 180960
832430238194117248 409715 391792 348262 180965
832430238212330368 410093 392152 348475 180938
832430238230543488 410492 392444 348646 180995
832430238248756608 410713 392553 348727 180964
832430238266969728 411029 392779 348881 180984
832430238285182848 411299 392939 349015 180957
832430238303396096 411678 393162 349174 181017
832430238321609216 412169 393514 349364 180983
832430238339822336 412270 393631 349418 180928
832430238358035456 412065 393467 349317 180965
832430238376248576 411451 392973 348968 180960
832430238394461824 410661 392444 348689 181011
832430238412674944 409800 391885 348326 180933
832430238430888064 409438 391586 348149 180921
832430238449101184 409380 391528 348129 180958
832430238467314304 409680 391729 348250 180979
832430238485527424 409966 392012 348390 180951
832430238503740672 410312 392289 348558 180949
832430238521953792 410526 392364 348596 180965
832430238540166912 410683 392496 348747 180994
832430238558380032 410901 392619 348849 180943
832430238576593152 411282 392895 348977 181020
832430238594806272 411811 393301 349203 180982
832430238613019520 412306 393642 349394 181004
832430238631232640 412419 393757 349471 180965
832430238649445764 412010 393433 349276 180981
832430238667659776 411268 392945 348939 180961
832430238685873792 410383 392377 348583 180926
832430238704087808 409714 391807 348269 180991
832430238722301824 409288 391495 348063 180919
832430238740515840 409212 391469 348084 180964
832430238758729856 409578 391681 348171 180975
832430238776943872 410006 392002 348382 181009
832430238795157888 410333 392221 348583 181003
832430238813371904 410690 392437 348736 181012
832430238831585920 410914 392625 348833 180985
832430238849799936 411163 392787 348876 180956
832430238868013952 411526 393137 349092 180930
832430238886227968 411994 393421 349317 180884
832430238904441984 412375 393689 349447 180955
832430238922656000 412262 393566 349363 180920
832430238940870016 411629 393234 349174 180900
832430238959084032 410756 392602 348768 180950
832430238977298048 410037 392088 348480 180987
832430238995512064 409526 391686 348219 180972
832430239013726080 409299 391554 348167 180936
832430239031940096 409398 391567 348170 180928
832430239050154112 409816 391868 348290 180917
832430239068368128 410250 392147 348496 180989
832430239086582144 410565 392407 348628 180940
832430239104796160 410668 392526 348713 180967
832430239123010176 410820 392668 348782 180965
832430239141224192 411100 392735 348905 180995
832430239159438208 411559 393116 349110 180985
832430239177652224 412091 393536 349390 180959
832430239195866240 412390 393725 349437 180918
832430239214080256 412149 393584 349335 180955
832430239232294272 411547 393115 349084 180966
832430239250508288 410730 392558 348750 180984
832430239268722304 409956 391967 348417 180939
832430239286936260 409415 391540 348148 180967
832430239305149440 409263 391423 348065 180970
832430239323362560 409357 391462 348173 180942
832430239341575680 409729 391792 348327 180968
832430239359788928 410167 392106 348495 180914
832430239378002048 410453 392311 348618 180956
832430239396215168 410718 392457 348701 180945
832430239414428288 410935 392716 348838 180933
832430239432641408 411364 393000 349039 180954
832430239450854528 411817 393333 349211 180907
832430239469067776 412245 393710 349420 180923
832430239487280896 412374 393759 349433 180919
832430239505494016 411900 393402 349229 180943
832430239523707136 411098 392773 348849 180959
832430239541920256 410284 392193 348526 180968
832430239560133376 409653 391759 348253 180959
832430239578346624 409259 391504 348129 180864
832430239596559744 409269 391499 348116 180902
832430239614772864 409543 391717 348185 180942
832430239632985984 410050 392049 348378 180835
832430239651199104 410495 392325 348563 180943
832430239669412352 410699 392533 348694 180922
832430239687625472 410828 392592 348760 180933
832430239705838592 411011 392742 348832 180892
832430239724051712 411244 392932 348953 180907
832430239742264832 411821 393290 349190 180956
832430239760477952 412272 393678 349382 180875
832430239778691200 412262 393540 349342 180903
832430239796904320 411790 393237 349162 180927
832430239815117440 411014 392713 348786 180936
832430239833330560 410219 392142 348496 180898
832430239851543680 409616 391695 348216 180842
832430239869756800 409321 391470 348140 180936
832430239887970048 409383 391471 348078 180955
832430239906183168 409558 391670 348233 180936
832430239924396246 409944 391880 348345 180893
832430239942610560 410347 392159 348482 180914
832430239960824832 410662 392435 348670 180961
832430239979038976 410791 392619 348757 180910
832430239997253248 411178 392790 348876 180920
832430240015467520 411587 393143 349110 180932
832430240033681664 412161 393546 349363 180925
832430240051895936 412473 393803 349509 180899
832430240070110208 412235 393648 349375 180941
832430240088324480 411558 393173 349067 180993
832430240106538624 410587 392461 348720 180918
832430240124752896 409800 391815 348339 180944
832430240142967168 409337 391562 348168 180893
832430240161181312 409278 391410 348071 180936
832430240179395584 409425 391593 348153 180908
832430240197609856 409788 391832 348275 180920
832430240215824000 410224 392115 348416 180868
832430240234038272 410565 392442 348645 180908
832430240252252544 410785 392568 348714 180869
832430240270466688 410952 392696 348802 180922
832430240288680960 411193 392843 348937 180934
832430240306895232 411610 393117 349121 180916
832430240325109504 412130 393507 349360 180921
832430240343323648 412288 393631 349357 180927
832430240361537920 412019 393404 349247 180978
832430240379752192 411318 392881 348970 180975
832430240397966336 410455 392314 348634 180986
832430240416180608 409765 391768 348338 180956
832430240434394880 409415 391556 348163 180910
832430240452609024 409387 391500 348128 180961
832430240470823296 409543 391645 348253 180962
832430240489037568 409938 391915 348418 180977
832430240507251712 410199 392145 348504 180940
832430240525465984 410524 392341 348636 180926
832430240543680256 410687 392511 348749 180959
832430240561894380 410990 392650 348812 180924
832430240580107264 411365 392986 348987 180894
832430240598320128 411880 393264 349195 180904
832430240616533120 412335 393681 349400 180933
832430240634745984 412455 393774 349452 180950
832430240652958976 411939 393367 349175 180926
832430240671171840 411011 392759 348845 180932
832430240689384832 410087 392111 348447 180948
832430240707597696 409460 391577 348205 181012
832430240725810688 409180 391399 348040 180930
832430240744023552 409300 391502 348061 180873
832430240762236544 409688 391776 348211 180933
832430240780449408 410156 392123 348460 180974
832430240798662400 410421 392325 348600 180953
832430240816875264 410692 392505 348752 180957
832430240835088256 410899 392663 348835 180902
832430240853301120 411183 392856 348977 180955
832430240871514112 411576 393149 349124 180975
832430240889726976 411998 393415 349262 180966
832430240907939968 412219 393576 349380 180938
832430240926152832 412172 393551 349398 181024
832430240944365696 411591 393107 349146 180967
832430240962578688 410724 392513 348780 180928
832430240980791552 410017 391931 348445 180967
832430240999004544 409462 391546 348160 181001
832430241017217408 409308 391522 348147 180936
832430241035430400 409455 391688 348249 180993
832430241053643264 409794 391878 348425 180967
832430241071856256 410145 392157 348545 180934
832430241090069120 410406 392331 348593 180952
832430241108282112 410687 392454 348734 181010
832430241126494976 410888 392585 348720 180933
832430241144707968 411248 392792 348953 180941
832430241162920832 411644 393141 349139 180986
832430241181133824 412253 393612 349342 180990
832430241199346736 412398 393697 349432 180983
832430241217560448 412131 393474 349341 180907
832430241235774208 411425 392992 349024 180913
832430241253988096 410485 392349 348660 180905
832430241272201856 409662 391748 348259 180902
832430241290415616 409205 391406 348027 180889
832430241308629376 409136 391352 348015 180930
832430241326843264 409444 391525 348160 180900
832430241345057024 409836 391901 348349 180891
832430241363270784 410261 392236 348539 180882
832430241381484672 410585 392414 348651 180908
832430241399698432 410754 392544 348740 180917
832430241417912192 411032 392750 348862 180900
832430241436125952 411407 393010 348992 180938
832430241454339840 411882 393370 349247 180944
832430241472553600 412245 393621 349393 180910
832430241490767360 412169 393610 349409 180921
832430241508981248 411809 393313 349229 180935
832430241527195008 411057 392721 348876 180944
832430241545408768 410171 392151 348485 180961
832430241563622528 409573 391681 348182 180913
832430241581836416 409342 391467 348042 180939
832430241600050176 409491 391608 348121 180926
832430241618263936 409730 391767 348263 180926
832430241636477824 410136 392121 348471 180905
832430241654691584 410476 392304 348583 180913
832430241672905344 410622 392471 348657 180910
832430241691119104 410630 392529 348687 180883
832430241709332992 411004 392724 348812 180973
832430241727546752 411423 393014 349030 180897
832430241745760512 412036 393373 349282 180970
832430241763974272 412388 393702 349447 180950
832430241782188160 412252 393650 349412 180933
832430241800401920 411712 393212 349088 180919
832430241818615680 410909 392669 348802 180943
832430241836829604 410072 392050 348423 180908
832430241855042944 409441 391606 348190 180908
832430241873256320 409173 391416 348082 180923
832430241891469696 409372 391432 348117 180934
832430241909683072 409759 391738 348294 180981
832430241927896448 410189 392071 348474 180908
832430241946109696 410552 392377 348638 180923
832430241964323072 410690 392506 348711 180950
832430241982536448 410944 392694 348767 180921
832430242000749824 411271 392896 348887 180891
832430242018963200 411703 393190 349083 180905
832430242037176576 412205 393600 349362 180931
832430242055389952 412320 393675 349363 180889
832430242073603328 412001 393469 349279 180913
832430242091816576 411302 392924 348972 180909
832430242110029952 410404 392328 348597 180936
832430242128243328 409742 391802 348301 180916
832430242146456704 409372 391507 348154 180950
832430242164670080 409253 391456 348123 180892
832430242182883456 409538 391623 348174 180930
832430242201096832 409900 391945 348376 180954
832430242219310208 410293 392288 348595 180967
832430242237523456 410542 392369 348643 180908
832430242255736832 410669 392558 348717 180913
832430242273950208 410908 392646 348828 180944
832430242292163584 411232 392902 348928 180935
832430242310376960 411694 393254 349092 180879
832430242328590336 412264 393667 349346 180894
832430242346803712 412366 393686 349399 180944
832430242365017088 411892 393336 349225 180901
832430242383230336 411174 392801 348881 180938
832430242401443712 410361 392272 348554 180987
832430242419657088 409614 391806 348286 180918
832430242437870464 409286 391475 348139 180941
832430242456083840 409221 391451 348084 180916
832430242474297218 409456 391599 348133 180927
832430242492510592 409978 391954 348369 180970
832430242510723968 410440 392243 348509 180932
832430242528937344 410644 392433 348657 180918
832430242547150720 410847 392567 348731 180900
832430242565364096 411075 392761 348863 180943
832430242583577344 411522 393102 349058 180915
832430242601790720 412050 393463 349291 180950
832430242620004096 412371 393749 349458 180959
832430242638217472 412214 393680 349354 180875
832430242656430848 411523 393179 349045 180866
832430242674644224 410734 392518 348708 180986
832430242692857600 409956 391974 348374 180943
832430242711070976 409468 391575 348252 180992
832430242729284224 409211 391390 348065 180914
832430242747497600 409429 391547 348156 180973
832430242765710976 409757 391790 348228 180913
832430242783924352 410176 392138 348460 180905
832430242802137728 410472 392374 348628 180906
832430242820351104 410692 392493 348666 180924
832430242838564480 410884 392672 348803 180940
832430242856777856 411113 392809 348909 180937
832430242874991104 411564 393076 349036 180927
832430242893204480 412107 393481 349347 180933
832430242911417856 412381 393628 349422 180984
832430242929631232 412193 393515 349288 181003
832430242947844608 411488 393036 349024 180889
832430242966057984 410652 392492 348703 180914
832430242984271360 409933 391915 348410 180940
832430243002484736 409436 391556 348158 180943
832430243020697984 409286 391411 348092 180969
832430243038911360 409367 391570 348158 180845
832430243057124736 409671 391855 348262 180855
832430243075338112 410115 392143 348481 180902
832430243093551488 410456 392339 348590 180930
832430243111764834 410732 392542 348685 180951
832430243129978624 410974 392696 348832 180927
832430243148192384 411352 392995 349030 180953
832430243166406272 411876 393313 349246 180945
832430243184620032 412351 393603 349408 180935
832430243202833792 412378 393644 349392 180874
832430243221047552 411909 393401 349242 180941
832430243239261440 411078 392786 348842 180916
832430243257475200 410134 392118 348477 180924
832430243275688960 409549 391649 348197 180908
832430243293902848 409202 391440 348098 180900
832430243312116608 409291 391503 348099 180975
832430243330330368 409531 391693 348266 180948
832430243348544128 410055 392014 348386 180947
832430243366758016 410433 392378 348650 180953
832430243384971776 410720 392509 348697 180973
832430243403185536 410833 392592 348777 180942
832430243421399424 411008 392755 348837 180903
832430243439613184 411343 393010 348985 180934
832430243457826944 411808 393285 349141 180941
832430243476040704 412272 393582 349366 180964
832430243494254592 412240 393610 349386 181018
832430243512468352 411696 393203 349189 180983
832430243530682112 410893 392646 348826 180979
832430243548896000 410142 392109 348457 180994
832430243567109760 409596 391745 348223 180918
832430243585323520 409397 391502 348121 180909
832430243603537280 409548 391624 348263 180949
832430243621751168 409701 391800 348326 180950
832430243639964928 410098 392109 348493 181013
832430243658178688 410417 392224 348622 180936
832430243676392576 410713 392414 348734 180957
832430243694606336 410859 392583 348811 180937
832430243712820096 411192 392774 348908 180983
832430243731033856 411551 393179 349026 180910
832430243749247708 412181 393542 349321 180971
832430243767461504 412456 393738 349455 180958
832430243785675264 412230 393672 349354 180959
832430243803889152 411570 393203 349084 180938
832430243822102912 410721 392503 348691 180936
832430243840316672 409870 391955 348351 181025
832430243858530432 409313 391553 348120 180950
832430243876744320 409207 391435 347992 180955
832430243894958080 409451 391550 348110 180923
832430243913171840 409901 391879 348360 180948
832430243931385728 410255 392171 348527 180917
832430243949599488 410581 392429 348646 180930
832430243967813248 410821 392582 348787 180953
832430243986027008 410988 392719 348933 180936
832430244004240896 411236 392947 348989 180967
832430244022454656 411693 393225 349158 180914
832430244040668416 412115 393548 349364 180941
832430244058882304 412321 393644 349443 180953
832430244077096064 412015 393407 349297 180956
832430244095309824 411295 392892 349000 180969
832430244113523584 410406 392258 348659 180973
832430244131737472 409698 391751 348298 180915
832430244149951232 409401 391582 348161 180917
832430244168164992 409432 391576 348158 180973
832430244186378880 409671 391794 348275 180949
832430244204592640 409965 391931 348426 180910
832430244222806400 410275 392157 348527 180872
832430244241020160 410465 392303 348624 180923
832430244259234048 410679 392533 348703 180930
832430244277447808 410928 392668 348791 180956
832430244295661568 411314 392946 348959 180888
832430244313875328 411906 393381 349209 180951
832430244332089216 412383 393715 349463 180977
832430244350302976 412407 393749 349446 180927
832430244368516736 411931 393342 349270 180958
832430244386730576 410998 392705 348837 181007
832430244404944896 410041 392059 348443 180908
832430244423159168 409445 391572 348190 180960
832430244441373312 409228 391373 348089 180938
832430244459587584 409319 391539 348152 180915
832430244477801856 409708 391769 348230 180910
832430244496016000 410123 392090 348420 180932
832430244514230272 410424 392268 348605 180915
832430244532444544 410769 392501 348721 180990
832430244550658816 410925 392627 348793 180935
832430244568872960 411247 392884 348946 180994
832430244587087232 411641 393130 349072 180969
832430244605301504 412127 393462 349277 180986
832430244623515648 412270 393606 349422 180994
832430244641729920 412154 393510 349410 181007
832430244659944192 411545 393071 349072 180975
832430244678158336 410655 392484 348748 180943
832430244696372608 409961 391956 348391 180941
832430244714586880 409398 391562 348170 180962
832430244732801024 409287 391555 348116 180947
832430244751015296 409568 391741 348230 180988
832430244769229568 409893 391988 348351 180947
832430244787443712 410322 392319 348525 181026
832430244805657984 410478 392363 348609 180976
832430244823872256 410532 392364 348653 180936
832430244842086528 410785 392486 348745 180941
832430244860300672 411243 392862 348921 180935
832430244878514944 411750 393197 349195 180936
832430244896729216 412204 393591 349397 180923
832430244914943360 412337 393696 349396 180918
832430244933157632 412079 393445 349278 180923
832430244951371904 411379 393049 349074 180947
832430244969586048 410493 392372 348670 180897
832430244987800320 409717 391857 348308 180944
832430245006014592 409307 391529 348123 180897
832430245024228708 409182 391402 348029 180987
832430245042442752 409475 391598 348189 180995
832430245060656768 410025 391980 348390 181024
832430245078870784 410377 392220 348494 180935
832430245097084800 410583 392457 348673 180964
832430245115298816 410775 392539 348733 180977
832430245133512832 411155 392823 348945 180953
832430245151726848 411456 393052 349068 180899
832430245169940864 411884 393390 349241 180890
832430245188154880 412284 393653 349405 180918
832430245206368896 412279 393646 349418 180900
832430245224582912 411692 393216 349143 180918
832430245242796928 410938 392697 348829 181011
832430245261010944 410091 392116 348484 180939
832430245279224960 409540 391636 348186 180983
832430245297438976 409308 391442 348098 181009
832430245315652992 409364 391510 348093 180922
832430245333867008 409760 391861 348332 180942
832430245352081024 410182 392156 348484 180930
832430245370295040 410470 392382 348616 180915
832430245388509056 410649 392515 348714 180916
832430245406723072 410767 392539 348776 180942
832430245424937088 411043 392733 348855 180922
832430245443151104 411452 392994 349059 180858
832430245461365120 412023 393410 349290 180898
832430245479579136 412346 393651 349410 180930
832430245497793152 412162 393563 349335 180950
832430245516007168 411617 393161 349091 180952
832430245534221184 410848 392585 348754 180948
832430245552435200 410014 391978 348424 180896
832430245570649216 409459 391605 348185 180939
832430245588863232 409263 391458 348098 180965
832430245607077248 409419 391606 348187 180911
832430245625291264 409716 391819 348237 180880
832430245643505280 410247 392169 348506 181003
832430245661719212 410555 392327 348612 180964
832430245679933184 410743 392489 348651 180943
832430245698147200 410988 392640 348834 180953
832430245716361216 411304 392955 348901 180941
832430245734575232 411786 393281 349145 180941
832430245752789248 412301 393737 349405 180969
832430245771003264 412333 393734 349432 180876
832430245789217280 411961 393421 349235 180916
832430245807431296 411243 392841 348950 180922
832430245825645312 410371 392278 348587 180952
832430245843859328 409678 391789 348246 180937
832430245862073344 409320 391520 348179 180962
832430245880287360 409308 391472 348112 180979
832430245898501376 409593 391700 348220 180975
832430245916715392 410039 392017 348404 180917
832430245934929408 410392 392251 348522 180881
832430245953143424 410574 392440 348622 180903
832430245971357440 410724 392556 348713 180928
832430245989571456 410931 392718 348811 180948
832430246007785472 411173 392865 348970 180955
832430246025999488 411719 393224 349175 180962
832430246044213504 412287 393616 349416 180954
832430246062427520 412321 393594 349411 180964
832430246080641536 411898 393390 349245 180976
832430246098855552 411162 392805 348877 180904
832430246117069568 410282 392233 348515 180887
832430246135283584 409704 391774 348284 180899
832430246153497600 409330 391517 348146 180877
832430246171711616 409371 391558 348141 180923
832430246189925632 409637 391722 348268 180948
832430246208139648 409969 391933 348324 181014
832430246226353664 410322 392207 348555 180934
832430246244567680 410692 392399 348684 180972
832430246262781696 410831 392558 348741 180981
832430246280995712 411114 392738 348834 180922
832430246299209716 411550 393045 349084 180954
832430246317424384 412057 393506 349325 180986
832430246335639040 412395 393756 349476 180971
832430246353853696 412266 393701 349400 180966
832430246372068352 411607 393184 349109 180893
832430246390283008 410666 392518 348719 180849
832430246408497664 409922 391887 348382 180925
832430246426712448 409434 391534 348224 180991
832430246444927104 409314 391436 348061 180953
832430246463141760 409473 391564 348139 180919
832430246481356416 409856 391824 348326 180944
832430246499571072 410242 392121 348516 180996
832430246517785728 410587 392424 348653 180943
832430246536000384 410769 392574 348804 180976
832430246554215040 410984 392695 348868 180978
832430246572429696 411241 392877 348932 180915
832430246590644352 411567 393175 349119 180930
832430246608859136 412134 393496 349334 180981
832430246627073792 412375 393660 349406 180907
832430246645288448 412124 393471 349300 180944
832430246663503104 411425 392980 348981 180884
832430246681717760 410585 392418 348642 180923
832430246699932416 409895 391915 348339 180985
832430246718147072 409390 391529 348141 180937
832430246736361728 409318 391527 348149 180911
832430246754576384 409596 391615 348234 180926
832430246772791040 409888 391885 348407 180887
832430246791005696 410206 392160 348516 180908
832430246809220480 410541 392350 348632 180937
832430246827435136 410755 392554 348744 180978
832430246845649792 411001 392699 348820 180981
832430246863864448 411296 392952 348904 180914
832430246882079104 411790 393331 349201 180961
832430246900293760 412353 393680 349379 180934
832430246918508416 412388 393710 349426 180903
832430246936723102 411942 393450 349270 180909
832430246954937728 411158 392903 348916 180947
832430246973152384 410236 392161 348504 180931
832430246991367040 409531 391603 348247 180965
832430247009581696 409235 391423 348077 180991
832430247027796352 409269 391473 348090 180985
832430247046011008 409636 391699 348252 180911
832430247064225792 410081 392028 348423 180966
832430247082440448 410459 392287 348597 180984
832430247100655104 410745 392480 348608 180922
832430247118869760 410930 392619 348738 180935
832430247137084416 411140 392857 348915 180918
832430247155299072 411464 393071 349036 180922
832430247173513728 411926 393360 349250 180915
832430247191728384 412256 393608 349415 180939
832430247209943040 412250 393574 349380 180943
832430247228157696 411684 393211 349149 180930
832430247246372480 410888 392643 348850 180930
832430247264587136 410086 392043 348497 180914
832430247282801792 409486 391640 348168 180891
832430247301016448 409301 391473 348107 180958
832430247319231104 409451 391649 348167 180881
832430247337445760 409713 391824 348283 180904
832430247355660416 410117 392079 348480 180868
832430247373875072 410440 392280 348597 180933
832430247392089728 410641 392465 348636 180903
832430247410304384 410923 392630 348855 181009
832430247428519168 411208 392840 348905 180894
832430247446733824 411663 393174 349158 180958
832430247464948480 412214 393618 349418 180959
832430247483163136 412470 393709 349502 180950
832430247501377792 412189 393569 349355 180931
832430247519592448 411540 393085 349089 180951
832430247537807104 410585 392443 348713 180950
832430247556021760 409825 391855 348397 180914
832430247574236416 409295 391536 348146 180982
832430247592451162 409135 391411 348045 180951
832430247610663296 409468 391620 348207 180897
832430247628875392 409900 391915 348370 180898
832430247647087488 410326 392183 348550 180860
832430247665299584 410584 392431 348646 180934
832430247683511680 410794 392556 348787 180932
832430247701723648 411076 392715 348871 180942
832430247719935744 411347 392971 348977 180950
832430247738147840 411799 393351 349235 180959
832430247756359936 412214 393626 349406 180934
832430247774572032 412239 393633 349406 180920
832430247792784128 411851 393381 349222 180955
832430247810996224 411116 392849 348860 180947
832430247829208320 410298 392284 348553 180956
832430247847420416 409629 391669 348218 180911
832430247865632512 409369 391502 348114 180899
832430247883844480 409463 391582 348134 180905
832430247902056576 409718 391796 348268 180884
832430247920268672 410104 392080 348469 180910
832430247938480768 410388 392321 348580 180913
832430247956692864 410503 392417 348610 180941
832430247974904960 410712 392549 348732 180937
832430247993117056 411009 392725 348874 180939
832430248011329152 411398 392964 348998 180956
832430248029541248 411991 393382 349233 180928
832430248047753344 412384 393701 349468 180976
832430248065965312 412335 393574 349362 180882
832430248084177408 411846 393280 349186 180955
832430248102389504 410935 392679 348787 180860
832430248120601600 410100 392032 348479 180902
832430248138813696 409453 391529 348160 180886
832430248157025792 409159 391362 348014 180914
832430248175237888 409306 391528 348151 180921
832430248193449984 409699 391732 348281 180911
832430248211662080 410178 392105 348542 180959
832430248229874048 410455 392310 348636 180943
832430248248086140 410716 392495 348721 180936
832430248266298112 410973 392631 348813 180926
832430248284510080 411204 392842 348895 180933
832430248302721920 411661 393158 349072 180869
832430248320933888 412083 393520 349277 180923
832430248339145856 412325 393600 349335 180876
832430248357357696 412046 393471 349254 180893
832430248375569664 411453 393000 349000 180905
832430248393781504 410540 392355 348604 180880
832430248411993472 409860 391897 348358 180879
832430248430205440 409312 391485 348078 180870
832430248448417280 409269 391503 348136 180922
832430248466629248 409471 391615 348189 180906
832430248484841216 409892 391942 348389 180951
832430248503053056 410296 392232 348523 180939
832430248521265024 410535 392329 348614 180922
832430248539476992 410679 392445 348675 180901
832430248557688832 410849 392618 348766 180939
832430248575900800 411245 392822 348929 180943
832430248594112640 411659 393160 349104 180867
832430248612324608 412225 393544 349357 180899
832430248630536576 412305 393659 349392 180877
832430248648748416 411981 393435 349250 180891
832430248666960384 411370 392913 349001 180943
832430248685172352 410496 392331 348556 180902
832430248703384192 409687 391806 348263 180957
832430248721596160 409258 391443 348063 180882
832430248739808128 409209 391413 348043 180921
832430248758019968 409395 391584 348128 180893
832430248776231936 409897 391893 348311 180899
832430248794443904 410310 392202 348511 180934
832430248812655744 410531 392406 348642 180889
832430248830867712 410818 392591 348793 180974
832430248849079552 411052 392788 348846 180921
832430248867291520 411498 393094 349040 180898
832430248885503402 412010 393431 349221 180925
832430248903715712 412358 393673 349395 180890
832430248921928064 412312 393624 349310 180901
832430248940140416 411674 393213 349122 180926
832430248958352768 410887 392554 348726 180933
832430248976565120 410097 392029 348437 180917
832430248994777472 409470 391570 348166 180936
832430249012989824 409158 391432 348034 180859
832430249031202176 409353 391535 348153 180901
832430249049414528 409724 391810 348314 180923
832430249067626880 410191 392207 348498 180976
832430249085839232 410493 392420 348621 180903
832430249104051584 410688 392534 348695 180887
832430249122264064 410816 392610 348755 180889
832430249140476416 411059 392762 348861 180876
832430249158688768 411465 393021 349016 180896
832430249176901120 412081 393491 349313 180942
832430249195113472 412329 393691 349416 180933
832430249213325824 412148 393553 349263 180930
832430249231538176 411506 393056 349025 180903
832430249249750528 410786 392472 348714 180909
832430249267962880 410004 391959 348385 180910
832430249286175232 409492 391613 348133 180934
832430249304387584 409310 391449 348036 180927
832430249322599936 409399 391581 348149 180921
832430249340812288 409747 391854 348266 180892
832430249359024640 410099 392074 348469 180920
832430249377236992 410469 392338 348596 180897
832430249395449344 410647 392467 348621 180890
832430249413661696 410941 392672 348788 180873
832430249431874048 411265 392930 348947 180937
832430249450086400 411771 393286 349125 180886
832430249468298752 412318 393648 349371 180914
832430249486511104 412447 393744 349435 180920
832430249504723456 412026 393461 349221 180876
832430249522935914 411280 392891 348940 180874
832430249541149568 410344 392174 348486 180906
832430249559363200 409651 391711 348260 180960
832430249577576960 409280 391489 348101 180893
832430249595790592 409287 391483 348088 180950
832430249614004352 409548 391709 348208 180954
832430249632217984 409943 391996 348377 180891
832430249650431744 410446 392311 348614 180947
832430249668645376 410662 392492 348750 180927
832430249686859136 410820 392528 348778 180909
832430249705072768 411006 392702 348862 180925
832430249723286528 411282 392951 348977 180928
832430249741500160 411761 393290 349177 180913
832430249759713920 412236 393600 349378 180949
832430249777927552 412275 393597 349392 180931
832430249796141312 411729 393276 349202 180875
832430249814354944 411046 392735 348891 180942
832430249832568704 410163 392082 348456 180868
832430249850782336 409656 391660 348258 180925
832430249868996096 409370 391518 348173 180951
832430249887209728 409402 391538 348136 180867
832430249905423488 409691 391732 348224 180937
832430249923637120 410060 392039 348416 180956
832430249941850880 410379 392280 348599 180898
832430249960064512 410629 392485 348698 180903
832430249978278272 410895 392628 348810 180951
832430249996491904 411118 392788 348879 180902
832430250014705536 411544 393053 349017 180896
832430250032919296 412158 393590 349259 180953
832430250051132928 412442 393824 349479 180940
832430250069346688 412288 393683 349371 180927
832430250087560320 411572 393206 349122 180892
832430250105774080 410773 392530 348771 180953
832430250123987712 409803 391872 348363 180979
832430250142201472 409236 391445 348103 180871
832430250160415104 409170 391400 348087 180952
