TIMESTAMP PPG0 PPG1 PPG2 AMBIENT
832536751862488448 200974 195951 115221 -342465
832536751880670208 201021 195901 115234 -342442
832536751898852096 200998 195855 115218 -342552
832536751917033856 201019 195851 115270 -342432
832536751935215744 200998 195936 115220 -342386
832536751953397504 200996 195938 115189 -342407
832536751971579392 200983 195899 115228 -342426
832536751989761152 201018 195922 115189 -342360
832536752007943040 201007 195848 115219 -342430
832536752026124800 201010 195913 115224 -342431
832536752044306688 200943 195886 115215 -342437
832536752062488448 200987 195898 115233 -342416
832536752080670208 200959 195911 115267 -342408
832536752098852096 201022 195834 115213 -342461
832536752117033856 200947 195879 115208 -342490
832536752135215744 201019 195928 115228 -342415
832536752153397504 200992 195855 115223 -342434
832536752171579392 201031 195878 115250 -342512
832536752189761152 200969 195871 115270 -342464
832536752207943040 200983 195898 115215 -342450
832536752226124800 201024 195836 115185 -342445
832536752244306688 200982 195846 115248 -342427
832536752262488448 201008 195863 115221 -342491
832536752280670208 200962 195916 115230 -342417
832536752298852096 200903 195830 115223 -342450
832536752317033856 200932 195879 115228 -342460
832536752335215744 200908 195882 115237 -342424
832536752353397504 200863 195838 115236 -342467
832536752371579392 200915 195851 115237 -342493
832536752389761152 200952 195868 115184 -342488
832536752407943040 200897 195770 115140 -342462
832536752426124800 200955 195857 115181 -342416
832536752444306688 200971 195858 115216 -342454
832536752462488448 200984 195820 115179 -342443
832536752480670208 200962 195872 115172 -342466
832536752498852096 200923 195897 115200 -342447
832536752517033856 200915 195863 115143 -342461
832536752535215744 200901 195803 115150 -342518
832536752553397504 200973 195835 115217 -342467
832536752571579392 200952 195840 115244 -342486
832536752589761152 200958 195864 115194 -342443
832536752607943040 201022 195871 115242 -342389
832536752626124800 201021 195885 115240 -342411
832536752644306688 200973 195894 115213 -342394
832536752662488448 200939 195914 115270 -342453
832536752680670208 200959 195840 115223 -342424
832536752698852096 200951 195868 115245 -342488
832536752717033856 201005 195871 115277 -342457
832536752735215744 201010 195904 115275 -342438
832536752753397504 201021 195923 115278 -342447
832536752771579392 200912 195902 115231 -342440
832536752789761164 200938 195835 115208 -342495
832536752807975424 201011 195891 115261 -342448
832536752826189696 201015 195923 115277 -342438
832536752844404096 201023 195915 115274 -342358
832536752862618368 200958 195915 115266 -342405
832536752880832640 201016 195904 115255 -342394
832536752899047040 201038 195843 115263 -342440
832536752917261312 201022 195887 115274 -342419
832536752935475584 201011 195851 115310 -342430
832536752953689984 200983 195872 115254 -342432
832536752971904256 200983 195864 115237 -342462
832536752990118528 200981 195865 115235 -342402
832536753008332928 200954 195871 115261 -342467
832536753026547200 200918 195873 115282 -342438
832536753044761472 200997 195901 115275 -342372
832536753062975872 200962 195871 115227 -342416
832536753081190144 200975 195863 115242 -342416
832536753099404544 201011 195914 115248 -342406
832536753117618816 201002 195837 115181 -342398
832536753135833088 200948 195863 115200 -342389
832536753154047488 200958 195846 115269 -342409
832536753172261760 200948 195884 115166 -342428
832536753190476032 200998 195871 115243 -342435
832536753208690432 200988 195884 115243 -342384
832536753226904704 200960 195917 115328 -342451
832536753245118976 200967 195947 115291 -342458
832536753263333376 201005 195937 115263 -342461
832536753281547648 200972 195872 115230 -342419
832536753299761920 201002 195836 115232 -342398
832536753317976320 200959 195851 115193 -342468
832536753336190592 201039 195896 115267 -342390
832536753354404864 200946 195874 115178 -342459
832536753372619264 200928 195870 115225 -342509
832536753390833536 200952 195844 115243 -342525
832536753409047808 200962 195877 115225 -342490
832536753427262208 201011 195936 115231 -342442
832536753445476480 200955 195857 115206 -342466
832536753463690752 200958 195895 115237 -342432
832536753481905152 200963 195872 115260 -342382
832536753500119424 200885 195907 115233 -342452
832536753518333696 200959 195891 115260 -342401
832536753536548096 200960 195888 115195 -342450
832536753554762368 200960 195926 115280 -342384
832536753572976768 200949 195917 115217 -342380
832536753591191040 200936 195914 115280 -342443
832536753609405312 201021 195916 115284 -342367
832536753627619712 200967 195820 115189 -342454
832536753645833984 200984 195873 115198 -342469
832536753664048256 200987 195866 115236 -342413
832536753682262656 200996 195855 115198 -342380
832536753700476928 200980 195915 115211 -342447
832536753718691200 200990 195916 115247 -342424
832536753736905608 200981 195845 115221 -342435
832536753755119744 200959 195886 115272 -342451
832536753773333888 200943 195837 115226 -342449
832536753791548160 200925 195817 115244 -342489
832536753809762304 200968 195833 115244 -342416
832536753827976576 200921 195834 115221 -342405
832536753846190720 200929 195854 115215 -342462
832536753864404992 200910 195815 115252 -342474
832536753882619136 200916 195907 115238 -342445
832536753900833280 200957 195890 115241 -342435
832536753919047552 200954 195862 115193 -342448
832536753937261696 200947 195863 115174 -342470
832536753955475968 200985 195869 115184 -342397
832536753973690112 201001 195856 115208 -342444
832536753991904384 201027 195865 115292 -342409
832536754010118528 200958 195912 115216 -342399
832536754028332672 200907 195868 115161 -342454
832536754046546944 200962 195846 115216 -342428
832536754064761088 200994 195869 115211 -342402
832536754082975360 200996 195908 115247 -342409
832536754101189504 200954 195868 115281 -342444
832536754119403776 200939 195820 115197 -342423
832536754137617920 200936 195870 115210 -342391
832536754155832064 200943 195880 115259 -342453
832536754174046336 200931 195888 115261 -342433
832536754192260480 200949 195885 115320 -342459
832536754210474752 200953 195888 115257 -342450
832536754228688896 201010 195848 115304 -342431
832536754246903168 200955 195942 115305 -342417
832536754265117312 200945 195946 115245 -342437
832536754283331456 200982 195887 115280 -342437
832536754301545728 200989 195899 115323 -342424
832536754319759872 200966 195852 115272 -342409
832536754337974144 200967 195941 115248 -342393
832536754356188288 201001 195919 115305 -342363
832536754374402560 201033 195951 115305 -342345
832536754392616704 201013 195947 115245 -342431
832536754410830848 200983 195908 115249 -342415
832536754429045120 200956 195941 115238 -342408
832536754447259264 201017 195958 115269 -342428
832536754465473536 201002 195932 115308 -342381
832536754483687680 200967 195953 115229 -342404
832536754501901952 200938 195932 115278 -342371
832536754520116096 200947 195873 115227 -342404
832536754538330240 200990 195946 115282 -342355
832536754556544512 200903 195882 115272 -342422
832536754574758656 200921 195832 115252 -342435
832536754592972928 200917 195916 115284 -342380
832536754611187072 200941 195850 115240 -342407
832536754629401344 201004 195875 115244 -342388
832536754647615488 200912 195852 115241 -342473
832536754665829632 200984 195853 115219 -342440
832536754684043942 200920 195837 115234 -342413
832536754702258176 200955 195836 115179 -342409
832536754720472448 200968 195949 115274 -342368
832536754738686848 200998 195888 115207 -342399
832536754756901120 200952 195891 115227 -342443
832536754775115392 200977 195810 115168 -342443
832536754793329792 200958 195857 115164 -342484
832536754811544064 200954 195849 115157 -342476
832536754829758336 200917 195864 115228 -342427
832536754847972736 200933 195871 115194 -342424
832536754866187008 200948 195862 115228 -342411
832536754884401280 200880 195745 115194 -342512
832536754902615680 200929 195832 115238 -342454
832536754920829952 200998 195815 115238 -342403
832536754939044224 200938 195875 115224 -342404
832536754957258624 200954 195861 115267 -342426
832536754975472896 200964 195817 115218 -342430
832536754993687296 200969 195878 115197 -342392
832536755011901568 200965 195817 115226 -342372
832536755030115840 200962 195776 115240 -342426
832536755048330240 200957 195871 115282 -342424
832536755066544512 200950 195863 115293 -342448
832536755084758784 200955 195928 115243 -342402
832536755102973184 200925 195874 115221 -342399
832536755121187456 200979 195907 115277 -342386
832536755139401728 200989 195819 115287 -342422
832536755157616128 200974 195793 115224 -342476
832536755175830400 200952 195788 115225 -342417
832536755194044672 200981 195846 115278 -342449
832536755212259072 200895 195853 115174 -342490
832536755230473344 200898 195871 115193 -342464
832536755248687616 200874 195801 115185 -342513
832536755266902016 200878 195897 115194 -342408
832536755285116288 200935 195845 115241 -342461
832536755303330560 200904 195836 115208 -342462
832536755321544960 200972 195815 115254 -342459
832536755339759232 200940 195892 115263 -342442
832536755357973504 200957 195840 115211 -342481
832536755376187904 200930 195863 115227 -342425
832536755394402176 200968 195877 115206 -342414
832536755412616448 201005 195843 115269 -342404
832536755430830848 200986 195843 115195 -342484
832536755449045120 200930 195898 115228 -342457
832536755467259520 200895 195869 115201 -342491
832536755485473792 200917 195883 115194 -342440
832536755503688064 200907 195805 115183 -342425
832536755521902464 200883 195830 115165 -342477
832536755540116736 200967 195837 115181 -342449
832536755558331008 200896 195807 115246 -342462
832536755576545408 200888 195868 115248 -342462
832536755594759680 200980 195895 115251 -342496
832536755612973952 200981 195891 115168 -342461
832536755631188386 200911 195878 115189 -342494
832536755649403392 200891 195801 115179 -342489
832536755667618432 200908 195917 115229 -342462
832536755685833472 200930 195916 115231 -342455
832536755704048512 200970 195838 115223 -342457
832536755722263680 200955 195827 115211 -342478
832536755740478720 200931 195830 115192 -342459
832536755758693760 200941 195802 115152 -342465
832536755776908800 200904 195824 115192 -342425
832536755795123840 200929 195879 115194 -342431
832536755813338880 200914 195837 115183 -342394
832536755831553920 200985 195879 115196 -342415
832536755849769088 200922 195871 115254 -342407
832536755867984128 200901 195814 115172 -342483
832536755886199168 200946 195828 115227 -342441
832536755904414208 200943 195787 115190 -342482
832536755922629248 200916 195797 115148 -342425
832536755940844288 200939 195862 115221 -342430
832536755959059328 200889 195778 115168 -342401
832536755977274496 200868 195827 115165 -342431
832536755995489536 200862 195845 115246 -342413
832536756013704576 200910 195890 115221 -342440
832536756031919616 200912 195862 115179 -342424
832536756050134656 200910 195865 115160 -342452
832536756068349696 200948 195811 115216 -342434
832536756086564736 200894 195810 115148 -342453
832536756104779776 200953 195830 115177 -342408
832536756122994944 200947 195820 115164 -342409
832536756141209984 200914 195806 115245 -342430
832536756159425024 200906 195805 115200 -342455
832536756177640064 200949 195846 115177 -342488
832536756195855104 200930 195840 115169 -342448
832536756214070144 200973 195810 115253 -342457
832536756232285184 200949 195863 115213 -342499
832536756250500352 200914 195732 115213 -342505
832536756268715392 200872 195811 115217 -342456
832536756286930432 200831 195807 115178 -342454
832536756305145472 200822 195780 115197 -342504
832536756323360512 200904 195772 115172 -342566
832536756341575552 200896 195793 115200 -342506
832536756359790592 200911 195818 115186 -342498
832536756378005760 200952 195892 115241 -342430
832536756396220800 200886 195828 115179 -342486
832536756414435840 200940 195813 115093 -342506
832536756432650880 200996 195816 115246 -342425
832536756450865920 200987 195867 115246 -342467
832536756469080960 200939 195837 115203 -342431
832536756487296104 200865 195865 115196 -342452
832536756505510784 200973 195800 115166 -342419
832536756523725440 200890 195801 115180 -342441
832536756541940096 200912 195811 115196 -342404
832536756560154752 200922 195874 115254 -342407
832536756578369408 200953 195845 115261 -342430
832536756596584064 200900 195820 115213 -342422
832536756614798848 200871 195801 115212 -342470
832536756633013504 200850 195836 115191 -342479
832536756651228160 200868 195806 115182 -342445
832536756669442816 200939 195867 115215 -342427
832536756687657472 200928 195796 115174 -342449
832536756705872128 200967 195864 115203 -342418
832536756724086784 200924 195872 115179 -342398
832536756742301440 200900 195826 115157 -342458
832536756760516096 200930 195869 115225 -342460
832536756778730752 200884 195860 115196 -342468
832536756796945536 200876 195815 115181 -342460
832536756815160192 200939 195880 115228 -342418
832536756833374848 200954 195905 115183 -342471
832536756851589504 200930 195863 115209 -342400
832536756869804160 200948 195902 115249 -342385
832536756888018816 200938 195801 115171 -342450
832536756906233472 200882 195834 115190 -342452
832536756924448128 200929 195903 115227 -342434
832536756942662784 200831 195837 115172 -342437
832536756960877440 200923 195837 115180 -342455
832536756979092224 200922 195771 115160 -342447
832536756997306880 200965 195769 115221 -342401
832536757015521536 200970 195857 115251 -342404
832536757033736192 200894 195881 115194 -342458
832536757051950848 200960 195846 115213 -342467
832536757070165504 200958 195849 115184 -342443
832536757088380160 201002 195882 115229 -342413
832536757106594816 200989 195847 115250 -342444
832536757124809472 200941 195865 115225 -342430
832536757143024128 200960 195853 115200 -342441
832536757161238784 200874 195853 115194 -342436
832536757179453568 200918 195867 115213 -342454
832536757197668224 200948 195800 115208 -342444
832536757215882880 200968 195845 115236 -342431
832536757234097536 200972 195869 115217 -342400
832536757252312192 200905 195861 115185 -342411
832536757270526848 200942 195864 115208 -342420
832536757288741504 200965 195851 115216 -342385
832536757306956160 200929 195843 115203 -342404
832536757325170816 200949 195839 115259 -342410
832536757343385472 200997 195839 115232 -342451
832536757361600256 200948 195785 115227 -342465
832536757379814912 200893 195787 115179 -342461
832536757398029568 200955 195858 115144 -342443
832536757416244224 200874 195829 115207 -342462
832536757434458858 200945 195834 115144 -342444
832536757452673024 201001 195809 115194 -342451
832536757470887168 200935 195797 115197 -342407
832536757489101440 200922 195815 115227 -342411
832536757507315584 200929 195871 115191 -342461
832536757525529728 200905 195894 115231 -342433
832536757543744000 200959 195818 115159 -342430
832536757561958144 200938 195860 115197 -342448
832536757580172416 200904 195826 115203 -342453
832536757598386560 200900 195833 115257 -342403
832536757616600704 200899 195832 115184 -342461
832536757634814976 200968 195817 115215 -342428
832536757653029120 200903 195780 115176 -342457
832536757671243264 200973 195855 115264 -342479
832536757689457536 200952 195814 115227 -342425
832536757707671680 200884 195821 115226 -342434
832536757725885952 200837 195795 115131 -342452
832536757744100096 200918 195784 115191 -342433
832536757762314240 200946 195853 115250 -342388
832536757780528512 200971 195873 115215 -342371
832536757798742656 200959 195805 115210 -342366
832536757816956800 200933 195817 115217 -342392
832536757835171072 200975 195811 115252 -342408
832536757853385216 201014 195830 115252 -342387
832536757871599488 200873 195829 115219 -342468
832536757889813632 200956 195875 115247 -342433
832536757908027776 200948 195836 115220 -342379
832536757926242048 200923 195850 115235 -342428
832536757944456192 200916 195852 115251 -342430
832536757962670336 200945 195855 115226 -342425
832536757980884608 200955 195850 115308 -342402
832536757999098752 200955 195822 115208 -342411
832536758017312896 200957 195839 115209 -342394
832536758035527168 200908 195833 115213 -342449
832536758053741312 200900 195857 115242 -342466
832536758071955584 200947 195829 115271 -342393
832536758090169728 200959 195824 115297 -342385
832536758108383872 200969 195902 115267 -342406
832536758126598144 200941 195860 115254 -342385
832536758144812288 200968 195852 115271 -342394
832536758163026432 200986 195800 115250 -342382
832536758181240704 200953 195778 115230 -342420
832536758199454848 200970 195841 115200 -342413
832536758217669120 200952 195871 115182 -342466
832536758235883264 200949 195848 115200 -342467
832536758254097408 200954 195840 115195 -342450
832536758272311680 200945 195832 115174 -342492
832536758290525824 200950 195840 115168 -342471
832536758308740044 200935 195817 115182 -342441
832536758326953984 200907 195809 115168 -342456
832536758345167872 200933 195786 115199 -342420
832536758363381632 200938 195844 115196 -342476
832536758381595520 200958 195822 115213 -342496
832536758399809280 200951 195840 115200 -342457
832536758418023168 200933 195845 115251 -342473
832536758436236928 200911 195818 115183 -342469
832536758454450816 200919 195915 115246 -342465
832536758472664576 200890 195839 115201 -342426
832536758490878464 200964 195865 115191 -342501
832536758509092352 200915 195856 115197 -342426
832536758527306112 200959 195847 115215 -342442
832536758545520000 212346 202194 145231 -342369
832536758563733760 217288 204883 158255 -342342
832536758581947648 219469 206054 163930 -342274
832536758600161408 220409 206573 166352 -342262
832536758618375296 220785 206794 167409 -342358
832536758636589184 221033 206893 167926 -342357
832536758654802944 221034 206981 168088 -342332
832536758673016832 221046 207013 168170 -342370
832536758691230592 221088 207000 168227 -342339
832536758709444480 221159 207015 168208 -342336
832536758727658240 221189 206985 168231 -342401
832536758745872128 221082 206954 168224 -342303
832536758764085888 221144 206999 168267 -342308
832536758782299776 221113 207000 168219 -342317
832536758800513664 221115 206914 168257 -342311
832536758818727424 221113 206911 168307 -342341
832536758836941312 221147 206982 168295 -342367
832536758855155072 221144 206994 168272 -342337
832536758873368824 221188 206992 168268 -342314
832536758891583872 221125 206990 168271 -342340
832536758909798912 221150 207003 168289 -342291
832536758928013952 221063 206968 168239 -342342
832536758946229120 221096 207089 168284 -342303
832536758964444160 221079 207008 168292 -342307
832536758982659200 221149 207028 168293 -342315
832536759000874240 221098 207015 168274 -342311
832536759019089280 221155 207007 168248 -342289
832536759037304448 221149 207079 168284 -342289
832536759055519488 221169 206996 168194 -342366
832536759073734528 221079 206956 168212 -342347
832536759091949568 221117 207041 168323 -342317
832536759110164608 221061 206960 168251 -342357
832536759128379776 221072 206983 168239 -342365
832536759146594816 221100 206916 168237 -342350
832536759164809856 221090 206924 168229 -342339
832536759183024896 221115 206924 168260 -342287
832536759201239936 221143 206982 168230 -342340
832536759219455104 221186 207047 168280 -342315
832536759237670144 221184 207051 168244 -342327
832536759255885184 221147 206912 168173 -342314
832536759274100224 221122 206945 168250 -342290
832536759292315392 221095 206923 168233 -342348
832536759310530432 221149 206962 168267 -342364
832536759328745472 221092 206969 168232 -342284
832536759346960512 221144 206947 168259 -342235
832536759365175552 221097 206928 168253 -342277
832536759383390720 221103 206929 168255 -342306
832536759401605760 221101 206946 168265 -342315
832536759419820800 221148 206957 168270 -342278
832536759438035840 221062 206979 168236 -342362
832536759456250880 221144 207042 168264 -342354
832536759474466048 221118 206969 168225 -342331
832536759492681088 221115 206980 168291 -342357
832536759510896128 221100 207003 168198 -342351
832536759529111168 221130 206975 168247 -342295
832536759547326208 221150 206990 168176 -342330
832536759565541376 221134 206957 168211 -342329
832536759583756416 221166 206986 168234 -342323
832536759601971456 221174 206983 168268 -342375
832536759620186496 221135 206905 168205 -342364
832536759638401536 221118 206878 168195 -342372
832536759656616704 221144 206922 168199 -342303
832536759674831744 221117 206970 168199 -342310
832536759693046784 221105 206974 168208 -342325
832536759711261876 221089 206968 168243 -342319
832536759729475968 221106 206992 168307 -342307
832536759747690112 221063 206955 168214 -342358
832536759765904256 221114 207023 168299 -342310
832536759784118272 221144 207044 168276 -342319
832536759802332416 221152 206997 168294 -342273
832536759820546560 221131 207019 168291 -342300
832536759838760704 221123 206925 168259 -342334
832536759856974720 221132 206965 168230 -342320
832536759875188864 221160 206939 168216 -342302
832536759893403008 221086 206943 168191 -342290
832536759911617152 221095 206990 168221 -342317
832536759929831168 221124 207002 168238 -342313
832536759948045312 221087 207008 168266 -342346
832536759966259456 221090 206935 168243 -342369
832536759984473600 221149 206951 168204 -342365
832536760002687616 221156 206988 168229 -342317
832536760020901760 221051 206906 168170 -342338
832536760039115904 221108 206930 168238 -342339
832536760057330048 221100 206987 168259 -342290
832536760075544064 221195 207000 168283 -342271
832536760093758208 221092 207019 168236 -342291
832536760111972352 221083 206980 168183 -342325
832536760130186496 221073 206978 168276 -342384
832536760148400512 221120 206944 168219 -342330
832536760166614656 221099 206929 168276 -342329
832536760184828800 221167 206983 168290 -342285
832536760203042944 221130 206981 168296 -342297
832536760221257088 221179 207004 168334 -342278
832536760239471104 221097 206938 168297 -342334
832536760257685248 221147 206987 168245 -342328
832536760275899392 221178 206963 168236 -342229
832536760294113536 221153 206935 168290 -342285
832536760312327552 221126 206948 168237 -342282
832536760330541696 221184 206990 168313 -342318
832536760348755840 221187 206955 168268 -342280
832536760366969984 221156 206995 168318 -342283
832536760385184000 221119 206973 168275 -342346
832536760403398144 221120 206982 168215 -342338
832536760421612288 221125 206912 168224 -342295
832536760439826432 221141 206987 168284 -342290
832536760458040448 221123 206972 168301 -342255
832536760476254592 221100 206992 168276 -342291
832536760494468736 221065 206974 168281 -342339
832536760512682864 221156 206927 168236 -342308
832536760530896896 221156 206939 168308 -342260
832536760549110912 209668 200655 138165 -342357
832536760567324928 204848 197963 125212 -342373
832536760585538944 202591 196744 119517 -342403
832536760603752960 201605 196209 117062 -342425
832536760621966976 201240 196052 116054 -342441
832536760640180992 201043 195922 115548 -342410
832536760658395008 200967 195854 115303 -342442
832536760676609024 200933 195845 115199 -342440
832536760694823040 200986 195848 115267 -342402
832536760713037056 200918 195862 115215 -342448
832536760731251072 200924 195820 115178 -342498
832536760749465088 200916 195776 115155 -342487
832536760767679104 200955 195813 115232 -342418
832536760785893120 200964 195832 115228 -342373
832536760804107136 200923 195805 115161 -342439
832536760822321152 200956 195866 115220 -342419
832536760840535168 200891 195812 115142 -342442
832536760858749184 200898 195815 115209 -342400
832536760876963200 200975 195860 115253 -342391
832536760895177216 200925 195812 115151 -342453
832536760913391232 200928 195766 115215 -342427
832536760931605248 200915 195769 115185 -342393
832536760949819264 200906 195797 115180 -342447
832536760968033280 200895 195812 115221 -342411
832536760986247296 200906 195903 115243 -342418
832536761004461312 200893 195800 115184 -342424
832536761022675270 200885 195744 115191 -342372
832536761040888960 200957 195833 115235 -342425
832536761059102592 200952 195831 115218 -342377
832536761077316224 200969 195832 115263 -342362
832536761095529728 200934 195850 115214 -342371
832536761113743360 200931 195828 115175 -342401
832536761131956992 200959 195884 115185 -342381
832536761150170624 200913 195790 115173 -342365
832536761168384256 200910 195819 115198 -342468
832536761186597760 200917 195839 115226 -342382
832536761204811392 200925 195809 115181 -342431
832536761223025024 200959 195906 115243 -342394
832536761241238656 201002 195906 115277 -342367
832536761259452288 200967 195849 115258 -342434
832536761277665792 200956 195823 115213 -342404
832536761295879424 200982 195874 115278 -342425
832536761314093056 200957 195851 115266 -342422
832536761332306688 200969 195874 115254 -342377
832536761350520320 200976 195840 115230 -342388
832536761368733824 200982 195835 115223 -342423
832536761386947456 200956 195868 115268 -342377
832536761405161088 200930 195830 115229 -342416
832536761423374720 200931 195921 115231 -342370
832536761441588352 200912 195896 115211 -342420
832536761459801856 200999 195861 115242 -342380
832536761478015488 200953 195845 115196 -342375
832536761496229120 200983 195948 115265 -342328
832536761514442752 200992 195855 115225 -342437
832536761532656384 200922 195779 115161 -342450
832536761550869888 201952 196826 116237 -342400
832536761569083520 202397 197284 116705 -342422
832536761587297152 202615 197457 116899 -342431
832536761605510784 202648 197534 116936 -342421
832536761623724416 202759 197631 117029 -342439
832536761641937920 202771 197625 117085 -342396
832536761660151552 202767 197654 117089 -342416
832536761678365184 202791 197627 117068 -342404
832536761696578816 202788 197618 117037 -342388
832536761714792448 202748 197634 117024 -342360
832536761733006080 202712 197555 117043 -342440
832536761751219584 202789 197609 117060 -342365
832536761769433216 202793 197679 117085 -342384
832536761787646848 202778 197648 117063 -342415
832536761805860480 202771 197621 117010 -342400
832536761824074112 202758 197640 117086 -342432
832536761842287616 202792 197607 117039 -342397
832536761860501182 202808 197609 117051 -342401
832536761878715776 202815 197661 117121 -342347
832536761896930432 202790 197680 117123 -342364
832536761915145088 202757 197689 117060 -342402
832536761933359744 202750 197632 117055 -342362
832536761951574400 202780 197647 117063 -342366
832536761969789056 202778 197603 117041 -342374
832536761988003840 202725 197559 117042 -342440
832536762006218496 202747 197641 117094 -342386
832536762024433152 202781 197663 117057 -342384
832536762042647808 202788 197644 117010 -342445
832536762060862464 202839 197634 117031 -342417
832536762079077120 202800 197681 117057 -342402
832536762097291776 202759 197601 116938 -342377
832536762115506432 202805 197613 117031 -342370
832536762133721088 202814 197642 117060 -342396
832536762151935744 202819 197672 117112 -342360
832536762170150528 202819 197617 117095 -342392
832536762188365184 202813 197637 117147 -342364
832536762206579840 202711 197541 117024 -342425
832536762224794496 202726 197580 117054 -342400
832536762243009152 202712 197571 117022 -342458
832536762261223808 202722 197611 117072 -342408
832536762279438464 202716 197605 117031 -342443
832536762297653120 202789 197649 117046 -342397
832536762315867776 202831 197675 117125 -342342
832536762334082432 202733 197615 117022 -342373
832536762352297216 202731 197638 117129 -342377
832536762370511872 202765 197640 117099 -342354
832536762388726528 202739 197604 117103 -342379
832536762406941184 202768 197659 117137 -342409
832536762425155840 202811 197620 117057 -342457
832536762443370496 202746 197667 117015 -342422
832536762461585152 202782 197630 117022 -342392
832536762479799808 202770 197631 117053 -342382
832536762498014464 202751 197626 117083 -342430
832536762516229120 202720 197615 117063 -342400
832536762534443776 202722 197622 117131 -342422
832536762552658560 204952 199665 119297 -342374
832536762570873216 205972 200572 120353 -342354
832536762589087916 206342 200928 120707 -342397
832536762607302528 206503 201155 120962 -342383
832536762625517184 206577 201196 120977 -342433
832536762643731840 206603 201208 121009 -342396
832536762661946496 206653 201205 121044 -342340
832536762680161152 206627 201206 121009 -342453
832536762698375808 206699 201249 121048 -342342
832536762716590592 206669 201226 121030 -342349
832536762734805248 206593 201220 121080 -342370
832536762753019904 206648 201240 121084 -342371
832536762771234560 206697 201228 121100 -342347
832536762789449216 206667 201191 121034 -342355
832536762807663872 206688 201202 121035 -342349
832536762825878528 206684 201232 121078 -342354
832536762844093184 206663 201244 121016 -342398
832536762862307840 206663 201269 121058 -342422
832536762880522496 206645 201204 121013 -342438
832536762898737280 206648 201176 121080 -342430
832536762916951936 206689 201255 121077 -342384
832536762935166592 206688 201259 121080 -342336
832536762953381248 206718 201218 121066 -342357
832536762971595904 206663 201225 121046 -342356
832536762989810560 206678 201183 121066 -342377
832536763008025216 206685 201189 121010 -342372
832536763026239872 206703 201297 121119 -342332
832536763044454528 206655 201281 121075 -342406
832536763062669184 206714 201270 121073 -342409
832536763080883968 206596 201265 121043 -342399
832536763099098624 206681 201299 121064 -342406
832536763117313280 206639 201258 121051 -342386
832536763135527936 206635 201203 121031 -342394
832536763153742592 206634 201191 121082 -342416
832536763171957248 206650 201224 121022 -342404
832536763190171904 206641 201229 121034 -342428
832536763208386560 206644 201188 121036 -342470
832536763226601216 206607 201236 121104 -342422
832536763244815872 206619 201229 121122 -342381
832536763263030528 206665 201241 121062 -342371
832536763281245312 206624 201233 121080 -342390
832536763299459968 206599 201238 121037 -342376
832536763317674624 206669 201159 121039 -342416
832536763335889280 206657 201153 121030 -342362
832536763354103936 206665 201204 121029 -342413
832536763372318592 206658 201239 121039 -342359
832536763390533248 206725 201277 121082 -342333
832536763408747904 206690 201280 121113 -342345
832536763426962560 206671 201189 121003 -342381
832536763445177216 206655 201216 121024 -342399
832536763463392000 206635 201193 121014 -342413
832536763481606656 206638 201173 121042 -342363
832536763499821332 206613 201190 121079 -342386
832536763518036992 206634 201245 121093 -342353
832536763536252672 206637 201239 121146 -342349
832536763554468224 206650 201202 121090 -342394
832536763572683904 209282 203242 123841 -342388
832536763590899456 210530 204167 125189 -342311
832536763609115136 211073 204490 125723 -342391
832536763627330688 211258 204684 125959 -342368
832536763645546368 211359 204711 126070 -342390
832536763663761920 211441 204768 126133 -342359
832536763681977600 211458 204843 126152 -342426
832536763700193152 211503 204870 126172 -342354
832536763718408832 211451 204804 126136 -342356
832536763736624512 211500 204888 126114 -342339
832536763754840064 211483 204850 126163 -342311
832536763773055744 211517 204881 126112 -342331
832536763791271296 211559 204890 126182 -342332
832536763809486976 211585 204839 126202 -342380
832536763827702528 211544 204908 126219 -342393
832536763845918208 211499 204787 126182 -342381
832536763864133760 211490 204884 126236 -342341
832536763882349440 211465 204857 126161 -342330
832536763900564992 211475 204835 126143 -342399
832536763918780672 211496 204845 126155 -342334
832536763936996352 211470 204865 126140 -342383
832536763955211904 211466 204813 126156 -342392
832536763973427584 211450 204779 126112 -342424
832536763991643136 211480 204810 126082 -342402
832536764009858816 211486 204795 126150 -342383
832536764028074368 211519 204794 126111 -342393
832536764046290048 211514 204861 126116 -342388
832536764064505600 211496 204774 126151 -342349
832536764082721232 211530 204785 126097 -342337
832536764100934400 211492 204773 126130 -342371
832536764119147520 211507 204815 126094 -342389
832536764137360640 211523 204747 126150 -342371
832536764155573888 211503 204759 126108 -342401
832536764173787008 211465 204761 126146 -342407
832536764192000128 211509 204874 126154 -342365
832536764210213248 211459 204760 126058 -342399
832536764228426368 211481 204816 126149 -342339
832536764246639488 211468 204819 126154 -342385
832536764264852736 211418 204791 126143 -342387
832536764283065856 211457 204794 126132 -342341
832536764301278976 211497 204831 126155 -342351
832536764319492096 211557 204785 126140 -342400
832536764337705216 211506 204813 126170 -342375
832536764355918336 211540 204876 126185 -342375
832536764374131584 211492 204792 126189 -342352
832536764392344704 211423 204794 126102 -342418
832536764410557824 211430 204801 126122 -342408
832536764428770944 211511 204856 126113 -342374
832536764446984064 211445 204755 126118 -342410
832536764465197184 211447 204758 126115 -342401
832536764483410432 211534 204877 126202 -342350
832536764501623552 211510 204814 126146 -342401
832536764519836672 211511 204844 126117 -342398
832536764538049792 211500 204849 126115 -342399
832536764556262912 211534 204870 126129 -342350
832536764574476160 213954 205665 129085 -342365
832536764592689280 215288 206100 130621 -342373
832536764610902400 215882 206253 131274 -342332
832536764629115520 216111 206286 131514 -342364
832536764647328640 216271 206294 131681 -342385
832536764665541760 216295 206422 131737 -342341
832536764683755008 216264 206379 131758 -342371
832536764701968128 216314 206319 131745 -342388
832536764720181248 216311 206365 131786 -342386
832536764738394358 216289 206384 131768 -342384
832536764756607744 216228 206366 131811 -342349
832536764774821120 216308 206433 131849 -342280
832536764793034496 216353 206416 131813 -342331
832536764811248000 216319 206400 131798 -342329
832536764829461376 216272 206350 131825 -342327
832536764847674752 216313 206376 131783 -342320
832536764865888128 216273 206367 131764 -342345
832536764884101632 216290 206343 131768 -342367
832536764902315008 216323 206389 131765 -342302
832536764920528384 216285 206345 131751 -342377
832536764938741760 216299 206413 131797 -342357
832536764956955264 216286 206393 131753 -342345
832536764975168640 216320 206337 131775 -342374
832536764993382016 216326 206385 131815 -342348
832536765011595392 216279 206379 131765 -342392
832536765029808896 216302 206356 131800 -342380
832536765048022272 216325 206306 131781 -342356
832536765066235648 216307 206353 131766 -342372
832536765084449024 216240 206356 131771 -342414
832536765102662528 216241 206370 131790 -342404
832536765120875904 216227 206379 131742 -342399
832536765139089280 216186 206439 131765 -342387
832536765157302656 216242 206373 131770 -342379
832536765175516160 216276 206322 131783 -342363
832536765193729536 216234 206375 131786 -342336
832536765211942912 216290 206372 131769 -342322
832536765230156288 216233 206371 131753 -342381
832536765248369792 216303 206346 131773 -342379
832536765266583168 216221 206367 131696 -342405
832536765284796544 216281 206327 131715 -342411
832536765303009920 216335 206428 131786 -342371
832536765321223424 216279 206330 131741 -342390
832536765339436800 216262 206343 131808 -342356
832536765357650176 216263 206327 131732 -342437
832536765375863552 216219 206389 131754 -342478
832536765394077056 216324 206348 131767 -342416
832536765412290432 216290 206358 131759 -342392
832536765430503808 216259 206293 131754 -342432
832536765448717184 216248 206323 131685 -342436
832536765466930688 216272 206324 131737 -342453
832536765485144064 216282 206359 131748 -342359
832536765503357440 216304 206344 131758 -342371
832536765521570816 216255 206282 131787 -342422
832536765539784320 216322 206357 131768 -342364
832536765557997696 216213 206344 131761 -342410
832536765576211114 216260 206393 131758 -342417
832536765594425600 218067 206505 134845 -342438
832536765612640128 218932 206569 136490 -342402
832536765630854528 219307 206676 137239 -342330
832536765649069056 219475 206602 137455 -342348
832536765667283456 219534 206671 137613 -342341
832536765685497984 219605 206653 137664 -342340
832536765703712384 219584 206645 137645 -342355
832536765721926912 219641 206618 137685 -342320
832536765740141312 219615 206682 137670 -342366
832536765758355840 219616 206663 137671 -342339
832536765776570240 219629 206709 137712 -342372
832536765794784768 219605 206619 137621 -342381
832536765812999296 219577 206648 137657 -342385
832536765831213696 219552 206637 137681 -342363
832536765849428224 219611 206620 137622 -342391
832536765867642624 219573 206631 137655 -342391
832536765885857152 219557 206647 137620 -342354
832536765904071552 219564 206650 137688 -342346
832536765922286080 219594 206693 137684 -342352
832536765940500480 219626 206733 137674 -342375
832536765958715008 219594 206678 137656 -342390
832536765976929408 219637 206690 137706 -342342
832536765995143936 219604 206630 137745 -342386
832536766013358336 219603 206656 137734 -342366
832536766031572864 219673 206738 137792 -342295
832536766049787392 219666 206707 137764 -342266
832536766068001792 219633 206685 137709 -342340
832536766086216320 219558 206616 137722 -342353
832536766104430720 219571 206633 137649 -342411
832536766122645248 219572 206707 137674 -342441
832536766140859648 219577 206686 137630 -342374
832536766159074176 219581 206681 137729 -342362
832536766177288576 219622 206701 137687 -342354
832536766195503104 219636 206682 137696 -342375
832536766213717504 219600 206649 137665 -342366
832536766231932032 219569 206630 137720 -342365
832536766250146560 219538 206666 137760 -342345
832536766268360960 219567 206685 137673 -342358
832536766286575488 219549 206636 137714 -342347
832536766304789888 219604 206738 137720 -342328
832536766323004416 219639 206712 137724 -342336
832536766341218816 219614 206697 137703 -342392
832536766359433344 219582 206664 137739 -342368
832536766377647744 219573 206590 137699 -342338
832536766395862272 219614 206644 137695 -342384
832536766414076706 219573 206652 137662 -342391
832536766432290816 219536 206594 137690 -342430
832536766450504960 219569 206601 137650 -342418
832536766468718976 219606 206595 137636 -342313
832536766486933120 219600 206682 137696 -342295
832536766505147136 219579 206662 137632 -342357
832536766523361280 219563 206669 137662 -342403
832536766541575424 219567 206690 137653 -342373
832536766559789440 219603 206712 137731 -342375
832536766578003584 219568 206693 137667 -342432
832536766596217728 220133 206735 140489 -342421
832536766614431744 220321 206722 142367 -342473
832536766632645888 220474 206733 143066 -342410
832536766650859904 220545 206777 143489 -342373
832536766669074048 220611 206763 143625 -342367
832536766687288192 220570 206681 143729 -342369
832536766705502208 220569 206718 143729 -342367
832536766723716352 220573 206766 143746 -342385
832536766741930496 220540 206742 143706 -342362
832536766760144512 220533 206707 143726 -342363
832536766778358656 220567 206701 143713 -342407
832536766796572672 220549 206733 143773 -342352
832536766814786816 220640 206782 143820 -342380
832536766833000960 220571 206724 143749 -342430
832536766851214976 220589 206788 143751 -342369
832536766869429120 220599 206788 143723 -342338
832536766887643264 220560 206742 143741 -342392
832536766905857280 220598 206644 143740 -342423
832536766924071424 220632 206749 143719 -342335
832536766942285440 220597 206759 143713 -342369
832536766960499584 220591 206780 143778 -342320
832536766978713728 220562 206733 143720 -342389
832536766996927776 220598 206771 143746 -342365
832536767015140864 220591 206716 143734 -342390
832536767033353984 220559 206795 143787 -342342
832536767051567104 220602 206761 143794 -342352
832536767069780352 220566 206753 143786 -342349
832536767087993472 220646 206747 143809 -342355
832536767106206592 220622 206717 143794 -342403
832536767124419712 220572 206751 143806 -342317
832536767142632832 220592 206744 143789 -342342
832536767160845952 220607 206771 143748 -342365
832536767179059200 220613 206799 143705 -342352
832536767197272320 220603 206751 143718 -342398
832536767215485440 220616 206806 143748 -342393
832536767233698560 220584 206766 143770 -342356
832536767251911680 220591 206744 143737 -342373
832536767270124800 220624 206798 143796 -342337
832536767288338048 220506 206770 143741 -342311
832536767306551168 220601 206800 143761 -342334
832536767324764288 220620 206795 143778 -342323
832536767342977408 220612 206731 143782 -342360
832536767361190528 220596 206743 143738 -342405
832536767379403776 220591 206724 143723 -342370
832536767397616896 220661 206771 143763 -342338
832536767415830016 220643 206777 143749 -342332
832536767434043136 220606 206805 143804 -342331
832536767452256256 220533 206759 143757 -342348
832536767470469376 220564 206780 143735 -342362
832536767488682624 220614 206824 143751 -342321
832536767506895744 220608 206806 143722 -342407
832536767525108864 220607 206821 143756 -342339
832536767543321984 220578 206752 143747 -342394
832536767561535104 220666 206804 143735 -342304
832536767579748224 220585 206782 143720 -342313
832536767597961472 220626 206794 143776 -342353
832536767616174592 220732 206823 146780 -342366
832536767634387712 220806 206833 148655 -342315
832536767652600832 220815 206831 149355 -342366
832536767670813952 220849 206879 149676 -342350
832536767689027072 220852 206842 149795 -342369
832536767707240330 220830 206838 149866 -342391
832536767725454080 220897 206917 149962 -342278
832536767743667840 220897 206812 149972 -342290
832536767761881600 220842 206826 149969 -342322
832536767780095360 220835 206776 149909 -342374
832536767798309120 220865 206782 149891 -342369
832536767816522880 220857 206852 149909 -342332
832536767834736640 220831 206816 149854 -342387
832536767852950400 220851 206809 149871 -342356
832536767871164160 220810 206801 149859 -342386
832536767889377920 220798 206760 149868 -342404
832536767907591680 220867 206874 149940 -342413
832536767925805440 220830 206750 149880 -342391
832536767944019200 220872 206866 149891 -342320
832536767962233088 220819 206927 149894 -342339
832536767980446848 220905 206899 149899 -342310
832536767998660608 220851 206880 149911 -342348
832536768016874368 220842 206834 149894 -342358
832536768035088128 220901 206889 149970 -342273
832536768053301888 220860 206791 149917 -342352
832536768071515648 220882 206858 149890 -342287
832536768089729408 220852 206844 149817 -342367
832536768107943168 220863 206799 149868 -342339
832536768126156928 220861 206835 149892 -342320
832536768144370688 220869 206854 149952 -342306
832536768162584448 220862 206816 149892 -342359
832536768180798208 220793 206791 149835 -342324
832536768199011968 220814 206815 149900 -342337
832536768217225728 220850 206834 149877 -342341
832536768235439488 220842 206838 149900 -342336
832536768253653248 220768 206792 149882 -342373
832536768271867008 220834 206856 149915 -342355
832536768290080768 220823 206850 149826 -342356
832536768308294528 220807 206818 149899 -342380
832536768326508288 220808 206860 149874 -342346
832536768344722048 220882 206765 149900 -342377
832536768362935808 220892 206784 149853 -342351
832536768381149568 220870 206819 149949 -342373
832536768399363456 220894 206850 149896 -342337
832536768417577216 220913 206865 149905 -342336
832536768435790976 220865 206846 149906 -342356
832536768454004736 220860 206861 149898 -342391
832536768472218496 220887 206817 149906 -342390
832536768490432256 220926 206819 149905 -342365
832536768508646016 220916 206845 149891 -342310
832536768526859776 220816 206836 149888 -342392
832536768545073536 220866 206878 149896 -342338
832536768563287296 220813 206798 149935 -342353
832536768581501056 220885 206800 149890 -342332
832536768599714830 220840 206824 149889 -342342
832536768617928576 220860 206826 151572 -342369
832536768636142336 220961 206875 154052 -342355
832536768654355968 220968 206841 155078 -342372
832536768672569728 220989 206876 155582 -342359
832536768690783488 220944 206887 155850 -342372
832536768708997120 220955 206885 155909 -342341
832536768727210880 220912 206901 155937 -342404
832536768745424640 220966 206859 155943 -342383
832536768763638272 220999 206833 155946 -342353
832536768781852032 220948 206845 155957 -342337
832536768800065664 220928 206873 155917 -342335
832536768818279424 220928 206893 155994 -342299
832536768836493184 220995 206902 155971 -342341
832536768854706816 220914 206865 155922 -342359
832536768872920576 220920 206875 155966 -342366
832536768891134336 220921 206880 155972 -342375
832536768909347968 220938 206879 156003 -342336
832536768927561728 220948 206966 156015 -342249
832536768945775488 220939 206837 155957 -342362
832536768963989120 220949 206861 155980 -342372
832536768982202880 220940 206870 156016 -342341
832536769000416640 220946 206863 156022 -342306
832536769018630272 220909 206836 155966 -342311
832536769036844032 220896 206828 155930 -342328
832536769055057664 220910 206836 155928 -342328
832536769073271424 220961 206819 155958 -342351
832536769091485184 220918 206873 155979 -342347
832536769109698816 220879 206818 155939 -342341
832536769127912576 220920 206907 155972 -342304
832536769146126336 220944 206888 155934 -342354
832536769164339968 220980 206888 155961 -342288
832536769182553694 220925 206859 155941 -342364
832536769200768384 220911 206893 155981 -342308
832536769218983040 220916 206908 155965 -342333
832536769237197696 220980 206848 156020 -342314
832536769255412352 220962 206809 156026 -342373
832536769273627008 220961 206820 155979 -342337
832536769291841664 220984 206851 156009 -342353
832536769310056448 221000 206859 155990 -342349
832536769328271104 220916 206818 155968 -342407
832536769346485760 220949 206906 155929 -342374
832536769364700416 220964 206852 156016 -342334
832536769382915072 220991 206905 155991 -342330
832536769401129728 220950 206816 155936 -342352
832536769419344384 220935 206815 155958 -342369
832536769437559040 220914 206891 155959 -342374
832536769455773696 220919 206849 155958 -342410
832536769473988352 220902 206845 155887 -342376
832536769492203136 220921 206848 155949 -342336
832536769510417792 220919 206913 156000 -342316
832536769528632448 220962 206890 155988 -342325
832536769546847104 220892 206831 155929 -342368
832536769565061760 220959 206876 155997 -342345
832536769583276416 220893 206869 155999 -342393
832536769601491072 220866 206832 155922 -342404
832536769619705728 209601 200613 132805 -342443
832536769637920384 216016 204127 149343 -342385
832536769656135040 218891 205655 156555 -342394
832536769674349824 220068 206423 159673 -342404
832536769692564480 220526 206705 161022 -342382
832536769710779136 220847 206855 161664 -342342
832536769728993792 220897 206837 161849 -342351
832536769747208448 220960 206850 162000 -342314
832536769765423104 220988 206884 162091 -342355
832536769783637760 221015 206892 162102 -342367
832536769801852416 221034 206903 162127 -342350
832536769820067072 221012 206908 162111 -342320
832536769838281754 221001 206930 162097 -342360
832536769856496384 220963 206911 162081 -342376
832536769874711040 220994 206934 162121 -342383
832536769892925696 221023 206886 162159 -342311
832536769911140352 220959 206873 162136 -342363
832536769929355008 221033 206873 162064 -342341
832536769947569664 221020 206896 162061 -342369
832536769965784448 221013 206895 162052 -342342
832536769983999104 221089 206962 162142 -342338
832536770002213760 221027 206909 162151 -342319
832536770020428416 221033 206990 162061 -342345
832536770038643072 221021 206894 162039 -342340
832536770056857728 221022 206913 162063 -342341
832536770075072384 221000 206884 162080 -342385
832536770093287040 221019 206896 162089 -342366
832536770111501696 220990 206868 162059 -342384
832536770129716352 220968 206867 162066 -342342
832536770147931136 220977 206896 162055 -342384
832536770166145792 220980 206900 162029 -342307
832536770184360448 221052 206879 162094 -342337
832536770202575104 221031 206899 162019 -342347
832536770220789760 221080 206928 162082 -342359
832536770239004416 221078 206851 162113 -342355
832536770257219072 221049 206914 162147 -342300
832536770275433728 221044 206958 162106 -342306
832536770293648384 221014 206880 162124 -342311
832536770311863040 221022 206920 162062 -342371
832536770330077696 220999 206887 162127 -342315
832536770348292480 221015 206831 162043 -342316
832536770366507136 221028 206899 162069 -342310
832536770384721792 221064 206883 162094 -342354
832536770402936448 221107 206937 162134 -342310
832536770421151104 221003 206911 161978 -342348
832536770439365760 221006 206943 161981 -342405
832536770457580416 221040 206921 161996 -342337
832536770475795072 221023 206943 162077 -342299
832536770494009728 221011 206940 162066 -342328
832536770512224384 221029 206893 162104 -342312
832536770530439168 221011 206975 162029 -342320
832536770548653824 220978 206927 162056 -342359
832536770566868480 221015 206929 162084 -342317
832536770585083136 221036 206919 162087 -342346
832536770603297792 220991 206850 162045 -342357
832536770621512448 209572 200586 135451 -342398
832536770639727104 216099 204160 153961 -342384
832536770657941826 218943 205745 161953 -342332
832536770676155264 220119 206406 165428 -342353
832536770694368640 220716 206695 166978 -342337
832536770712582016 220952 206825 167666 -342355
832536770730795392 220962 206833 167905 -342337
832536770749008768 221035 206880 168029 -342360
832536770767222144 221083 206878 168063 -342315
832536770785435520 221074 206922 168100 -342304
832536770803648896 221065 206878 168105 -342298
832536770821862272 220994 206936 168170 -342300
832536770840075648 221059 206960 168153 -342304
832536770858289024 221007 206900 168120 -342342
832536770876502272 221071 206969 168120 -342340
832536770894715648 221068 207007 168158 -342337
832536770912929024 221079 206965 168192 -342366
832536770931142400 221046 206938 168160 -342290
832536770949355776 221096 206941 168177 -342294
832536770967569152 221081 206957 168173 -342327
832536770985782528 221102 206949 168126 -342312
832536771003995904 221138 206971 168161 -342284
832536771022209280 221085 206939 168168 -342302
832536771040422656 221039 206980 168155 -342315
832536771058636032 221075 206962 168148 -342299
832536771076849408 221084 206922 168162 -342303
832536771095062784 221132 206876 168160 -342313
832536771113276160 221062 206965 168144 -342350
832536771131489536 221105 207006 168174 -342264
832536771149702912 221082 206925 168133 -342338
832536771167916288 221055 206912 168112 -342336
832536771186129664 221055 206869 168163 -342283
832536771204343040 221059 206832 168133 -342322
832536771222556416 221132 206937 168150 -342246
832536771240769664 221065 206916 168221 -342321
832536771258983040 221109 206897 168225 -342314
832536771277196416 221100 206924 168147 -342332
832536771295409792 221068 206937 168150 -342304
832536771313623168 221076 206896 168158 -342278
832536771331836544 221092 206943 168163 -342288
832536771350049920 221110 206987 168148 -342217
832536771368263296 221058 206957 168135 -342316
832536771386476672 221041 206905 168145 -342338
832536771404690048 221036 206944 168142 -342305
832536771422903424 221024 206912 168099 -342335
832536771441116800 221058 206874 168165 -342320
832536771459330176 221074 206914 168116 -342349
832536771477543552 221089 206981 168113 -342317
832536771495756928 221048 206951 168082 -342399
832536771513970204 221099 206905 168118 -342339
832536771532184832 221075 206909 168106 -342321
832536771550399488 221080 206875 168101 -342359
832536771568614144 221058 206870 168118 -342370
832536771586828800 221080 206962 168140 -342305
832536771605043456 221078 206905 168154 -342305
832536771623258112 209686 206928 168106 -342385
832536771641472896 204726 200576 138111 -342403
832536771659687552 202529 197919 125109 -342413
832536771677902208 201665 196689 119479 -342427
832536771696116864 201233 196150 117016 -342408
832536771714331520 200975 195971 115914 -342418
832536771732546176 200936 195816 115499 -342465
832536771750760832 200872 195807 115243 -342502
832536771768975488 200871 195796 115132 -342434
832536771787190144 200872 195789 115157 -342432
832536771805404800 200901 195750 115162 -342420
832536771823619584 200914 195780 115171 -342455
832536771841834240 200862 195745 115100 -342487
832536771860048896 200884 195813 115105 -342408
832536771878263552 200856 195767 115107 -342445
832536771896478208 200874 195749 115120 -342426
832536771914692864 200877 195815 115127 -342426
832536771932907520 200878 195814 115081 -342425
832536771951122176 200850 195728 115117 -342433
832536771969336832 200893 195820 115189 -342440
832536771987551488 200843 195770 115139 -342460
832536772005766144 200897 195784 115086 -342438
832536772023980928 200886 195800 115109 -342437
832536772042195584 200826 195785 115118 -342428
832536772060410240 200935 195811 115199 -342444
832536772078624896 200900 195826 115118 -342487
832536772096839586 200872 195806 115118 -342523
832536772115054208 200921 195824 115138 -342443
832536772133268864 200901 195768 115128 -342455
832536772151483520 200836 195710 115129 -342493
832536772169698176 200898 195784 115160 -342447
832536772187912832 200906 195792 115112 -342426
832536772206127488 200946 195819 115173 -342396
832536772224342272 200878 195803 115125 -342432
832536772242556928 200865 195753 115179 -342421
832536772260771584 200845 195805 115129 -342422
832536772278986240 200854 195799 115199 -342405
832536772297200896 200889 195802 115190 -342401
832536772315415552 200864 195802 115167 -342421
832536772333630208 200887 195815 115181 -342405
832536772351844864 200949 195858 115233 -342376
832536772370059520 200930 195917 115228 -342349
832536772388274176 200852 195829 115162 -342390
832536772406488960 200921 195794 115178 -342419
832536772424703616 200884 195764 115137 -342413
832536772442918272 200929 195898 115109 -342402
832536772461132928 200913 195800 115174 -342409
832536772479347584 200870 195837 115152 -342401
832536772497562240 200895 195838 115146 -342414
832536772515776896 200886 195810 115114 -342371
832536772533991552 200880 195826 115124 -342425
832536772552206208 200935 195810 115134 -342409
832536772570420864 200904 195909 115173 -342401
832536772588635520 200816 195746 115141 -342418
832536772606850304 200920 195813 115214 -342421
832536772625064960 200943 195814 115178 -342394
832536772643279616 200885 195773 115154 -342421
832536772661494272 200851 195777 115097 -342407
832536772679708928 200913 195775 115123 -342391
832536772697923584 200873 195873 115173 -342404
832536772716138240 200842 195736 115131 -342422
832536772734352896 200851 195768 115128 -342368
832536772752567552 200886 195829 115159 -342418
832536772770782208 200898 195806 115190 -342432
832536772788996992 200895 195865 115189 -342376
832536772807211648 200833 195829 115115 -342397
832536772825426304 200862 195792 115112 -342394
832536772843640960 200906 195840 115176 -342390
832536772861855616 200879 195861 115140 -342442
832536772880070272 200877 195856 115123 -342467
832536772898284928 200869 195810 115142 -342436
832536772916499658 200873 195807 115161 -342410
832536772934713472 200889 195814 115167 -342392
832536772952927232 200866 195815 115142 -342425
832536772971141120 200863 195787 115147 -342435
832536772989354880 200948 195799 115217 -342381
832536773007568768 200895 195816 115181 -342471
832536773025782528 200817 195797 115111 -342437
832536773043996416 200886 195864 115171 -342365
832536773062210176 200897 195843 115174 -342379
832536773080424064 200897 195800 115175 -342473
832536773098637824 200922 195834 115149 -342444
832536773116851584 200960 195838 115100 -342403
832536773135065472 200908 195818 115115 -342450
832536773153279232 200881 195804 115154 -342453
832536773171493120 200881 195839 115080 -342439
832536773189706880 200889 195846 115162 -342432
832536773207920768 200877 195784 115128 -342511
832536773226134528 200888 195799 115141 -342434
832536773244348416 200817 195789 115130 -342481
832536773262562176 200883 195875 115127 -342457
832536773280776064 200831 195811 115134 -342459
832536773298989824 200825 195760 115114 -342458
832536773317203584 200830 195733 115184 -342427
832536773335417472 200859 195783 115220 -342370
832536773353631232 200896 195765 115139 -342383
832536773371845120 200893 195769 115098 -342451
832536773390058880 200850 195765 115126 -342445
832536773408272768 200840 195763 115157 -342454
832536773426486528 200898 195801 115185 -342374
832536773444700416 200847 195794 115123 -342389
832536773462914176 200866 195901 115179 -342414
832536773481127936 200836 195815 115151 -342523
832536773499341824 200898 195783 115184 -342471
832536773517555584 200853 195839 115214 -342456
832536773535769472 200894 195838 115202 -342468
832536773553983232 200859 195866 115181 -342425
832536773572197120 200840 195816 115135 -342488
832536773590410880 200902 195852 115141 -342442
832536773608624768 200914 195848 115145 -342445
832536773626838528 200902 195763 115097 -342459
832536773645052288 200902 195814 115105 -342475
832536773663266176 200820 195778 115101 -342477
832536773681479936 200833 195818 115107 -342400
832536773699693824 200908 195861 115123 -342432
832536773717907584 200850 195775 115090 -342479
832536773736121472 200821 195752 115088 -342487
832536773754335232 200838 195795 115123 -342449
832536773772549120 200823 195800 115101 -342484
832536773790762880 200796 195836 115130 -342499
832536773808976768 200813 195861 115191 -342455
832536773827190528 200801 195809 115156 -342371
832536773845404288 200830 195800 115130 -342476
832536773863618160 200836 195780 115072 -342440
832536773881831296 200869 195787 115122 -342416
832536773900044416 200865 195795 115149 -342455
832536773918257536 200896 195758 115112 -342448
832536773936470784 200902 195758 115092 -342465
832536773954683904 200867 195737 115120 -342415
832536773972897024 200911 195801 115155 -342418
832536773991110144 200878 195831 115157 -342386
832536774009323264 200868 195796 115168 -342430
832536774027536384 200872 195860 115155 -342406
832536774045749632 200917 195827 115203 -342407
832536774063962752 200868 195824 115201 -342419
832536774082175872 200888 195817 115188 -342400
832536774100388992 200852 195766 115169 -342414
832536774118602112 200853 195803 115144 -342393
832536774136815232 200845 195796 115124 -342426
832536774155028480 200864 195839 115131 -342436
832536774173241600 200916 195834 115179 -342408
832536774191454720 200851 195828 115128 -342444
832536774209667840 200854 195833 115094 -342471
832536774227880960 200847 195852 115124 -342419
832536774246094080 200793 195834 115107 -342441
832536774264307328 200851 195798 115141 -342371
832536774282520448 200855 195845 115131 -342443
832536774300733568 200851 195800 115042 -342410
832536774318946688 200810 195801 115127 -342462
832536774337159808 200885 195812 115146 -342488
832536774355373056 200856 195772 115107 -342476
832536774373586176 200801 195715 115056 -342436
832536774391799296 200819 195723 115090 -342451
832536774410012416 200863 195754 115053 -342382
832536774428225536 200889 195846 115169 -342408
832536774446438656 200884 195818 115121 -342401
832536774464651904 200861 195778 115099 -342427
832536774482865024 200870 195790 115175 -342409
832536774501078144 200832 195793 115147 -342399
832536774519291264 200873 195746 115174 -342364
832536774537504384 200825 195728 115114 -342443
832536774555717504 200823 195731 115117 -342442
832536774573930752 200845 195773 115100 -342449
832536774592143872 200870 195843 115145 -342403
832536774610356992 200810 195777 115098 -342466
832536774628570112 200856 195769 115039 -342469
832536774646783232 200974 195835 115178 -342420
832536774664996480 200853 195763 115123 -342470
832536774683209600 200915 195737 115157 -342406
832536774701422720 200863 195761 115125 -342451
832536774719635840 200868 195795 115133 -342475
832536774737848960 200794 195789 115104 -342496
832536774756062134 200789 195788 115115 -342418
