TIMESTAMP PPG0 PPG1 PPG2 AMBIENT
832536796303815424 200763 195782 115070 -342407
832536796321997184 200769 195792 115031 -342460
832536796340179072 200865 195811 115096 -342441
832536796358360832 200781 195790 115061 -342423
832536796376542720 200718 195691 115032 -342482
832536796394724480 212155 201993 144812 -342383
832536796412906368 217129 204787 158017 -342340
832536796431088128 219336 206030 163773 -342314
832536796449270016 220211 206441 166207 -342316
832536796467451776 220623 206637 167287 -342291
832536796485633664 220845 206769 167800 -342279
832536796503815424 220888 206804 167997 -342304
832536796521997184 220951 206866 168114 -342307
832536796540179072 221037 206803 168142 -342283
832536796558360832 220973 206829 168147 -342315
832536796576542720 220995 206872 168153 -342329
832536796594724480 220967 206879 168197 -342286
832536796612906368 220982 206869 168158 -342314
832536796631088128 220969 206825 168162 -342332
832536796649270016 220985 206893 168170 -342289
832536796667451776 221001 206879 168148 -342303
832536796685633664 220964 206857 168169 -342287
832536796703815424 220990 206844 168138 -342274
832536796721997184 221031 206914 168142 -342289
832536796740179072 221023 206877 168171 -342253
832536796758360832 220988 206800 168220 -342339
832536796776542720 220960 206835 168136 -342274
832536796794724480 220921 206777 168106 -342270
832536796812906368 220961 206788 168140 -342290
832536796831088128 220942 206786 168120 -342302
832536796849270016 220968 206842 168186 -342321
832536796867451782 220996 206823 168165 -342347
832536796885663744 220951 206818 168143 -342321
832536796903875712 220984 206783 168168 -342318
832536796922087680 221044 206843 168148 -342327
832536796940299776 220943 206749 168133 -342330
832536796958511744 221035 206832 168143 -342341
832536796976723712 221021 206814 168180 -342297
832536796994935680 221008 206848 168171 -342293
832536797013147776 221039 206840 168212 -342279
832536797031359744 220944 206814 168156 -342332
832536797049571712 220960 206855 168179 -342345
832536797067783680 220993 206790 168161 -342359
832536797085995776 221018 206774 168128 -342333
832536797104207744 221012 206867 168154 -342329
832536797122419712 221033 206831 168141 -342334
832536797140631680 221004 206828 168188 -342328
832536797158843776 220991 206835 168205 -342362
832536797177055744 221035 206878 168194 -342313
832536797195267712 221022 206870 168198 -342322
832536797213479680 220944 206872 168194 -342295
832536797231691648 220971 206821 168110 -342348
832536797249903744 220993 206854 168180 -342375
832536797268115712 220943 206878 168165 -342336
832536797286327680 220931 206860 168153 -342314
832536797304539648 220998 206889 168126 -342364
832536797322751744 220931 206870 168129 -342340
832536797340963712 220974 206846 168151 -342290
832536797359175680 220987 206877 168136 -342346
832536797377387648 221037 206852 168133 -342345
832536797395599744 221003 206834 168126 -342359
832536797413811712 220937 206820 168137 -342382
832536797432023680 220934 206868 168121 -342380
832536797450235648 220996 206883 168162 -342319
832536797468447744 221007 206871 168121 -342362
832536797486659712 220925 206804 168135 -342390
832536797504871680 221005 206851 168137 -342374
832536797523083648 220988 206785 168094 -342323
832536797541295616 220971 206823 168131 -342314
832536797559507712 220944 206865 168133 -342359
832536797577719680 220978 206791 168110 -342380
832536797595931648 220962 206787 168084 -342385
832536797614143616 220969 206801 168096 -342357
832536797632355712 220939 206882 168204 -342340
832536797650567680 220904 206832 168072 -342352
832536797668779648 220998 206849 168130 -342318
832536797686991616 220969 206772 168118 -342310
832536797705203712 220947 206753 168158 -342305
832536797723415680 220991 206841 168178 -342301
832536797741627692 220989 206832 168174 -342299
832536797759840768 220934 206831 168142 -342393
832536797778053888 220960 206851 168147 -342338
832536797796267008 220898 206828 168072 -342357
832536797814480256 220986 206839 168174 -342349
832536797832693376 220953 206845 168155 -342296
832536797850906496 220946 206887 168168 -342336
832536797869119616 220920 206877 168165 -342336
832536797887332736 220965 206868 168144 -342349
832536797905545856 221000 206891 168187 -342293
832536797923759104 220946 206879 168165 -342348
832536797941972224 220916 206817 168171 -342386
832536797960185344 220982 206878 168172 -342316
832536797978398464 220980 206806 168116 -342318
832536797996611584 220983 206844 168176 -342298
832536798014824704 220903 206810 168102 -342374
832536798033037952 220961 206841 168225 -342280
832536798051251072 220916 206859 168148 -342358
832536798069464192 220935 206844 168106 -342404
832536798087677312 220954 206867 168086 -342359
832536798105890432 221016 206878 168159 -342298
832536798124103680 220956 206814 168093 -342325
832536798142316800 220953 206790 168134 -342297
832536798160529920 220938 206831 168162 -342320
832536798178743040 220956 206842 168205 -342332
832536798196956160 221001 206871 168194 -342307
832536798215169280 220979 206816 168123 -342336
832536798233382528 221029 206819 168175 -342323
832536798251595648 220988 206878 168182 -342301
832536798269808768 220926 206870 168113 -342308
832536798288021888 220937 206785 168134 -342373
832536798306235008 221018 206811 168158 -342327
832536798324448128 221012 206846 168170 -342340
832536798342661376 221044 206861 168124 -342302
832536798360874496 221012 206862 168137 -342311
832536798379087616 220994 206876 168139 -342359
832536798397300736 210731 201872 139340 -342373
832536798415513856 205110 198372 125612 -342392
832536798433726976 202662 196851 119669 -342465
832536798451940224 201653 196262 117126 -342392
832536798470153388 201181 195950 115939 -342444
832536798488366464 200958 195797 115419 -342486
832536798506579584 200849 195777 115218 -342437
832536798524792704 200864 195807 115207 -342433
832536798543005952 200861 195738 115109 -342414
832536798561219072 200819 195758 115076 -342419
832536798579432192 200819 195728 115093 -342408
832536798597645312 200782 195727 115012 -342405
832536798615858432 200808 195763 115009 -342421
832536798634071552 200760 195710 114981 -342439
832536798652284800 200813 195691 115049 -342427
832536798670497920 200731 195704 115015 -342481
832536798688711040 200817 195744 115082 -342400
832536798706924160 200764 195686 115065 -342458
832536798725137280 200731 195721 114988 -342476
832536798743350400 200786 195713 115077 -342475
832536798761563648 200765 195732 115071 -342454
832536798779776768 200787 195754 115047 -342465
832536798797989888 200765 195773 115031 -342436
832536798816203008 200718 195709 115048 -342432
832536798834416128 200782 195743 115077 -342444
832536798852629248 200777 195721 115072 -342410
832536798870842496 200781 195699 115057 -342407
832536798889055616 200774 195709 115060 -342452
832536798907268736 200775 195730 115118 -342405
832536798925481856 200768 195698 115083 -342444
832536798943694976 200761 195701 115020 -342482
832536798961908224 200726 195715 114999 -342499
832536798980121344 200789 195726 115031 -342454
832536798998334464 200774 195699 115052 -342434
832536799016547584 200777 195771 115078 -342462
832536799034760704 200830 195760 115133 -342468
832536799052973824 200831 195709 115064 -342493
832536799071187072 200801 195685 115028 -342460
832536799089400192 200768 195737 115079 -342483
832536799107613312 200766 195746 115058 -342436
832536799125826432 200796 195785 115091 -342435
832536799144039552 200795 195735 115071 -342399
832536799162252672 200817 195734 115078 -342431
832536799180465920 200806 195718 115058 -342418
832536799198679040 200817 195707 115089 -342414
832536799216892160 200847 195756 115114 -342442
832536799235105280 200867 195769 115038 -342460
832536799253318400 200857 195699 115090 -342449
832536799271531648 200777 195698 115121 -342464
832536799289744794 200761 195693 114992 -342448
832536799307956480 200810 195697 115063 -342425
832536799326168192 200831 195726 115154 -342342
832536799344379776 200796 195776 115079 -342431
832536799362591488 200764 195783 115135 -342442
832536799380803072 200769 195699 115033 -342482
832536799399014784 201245 196091 115401 -342457
832536799417226368 202106 196872 116273 -342451
832536799435438080 202399 197269 116674 -342434
832536799453649664 202538 197424 116783 -342401
832536799471861376 202572 197465 116864 -342383
832536799490072960 202617 197493 116899 -342425
832536799508284672 202619 197438 116827 -342417
832536799526496384 202694 197552 116891 -342430
832536799544707968 202647 197505 116871 -342432
832536799562919680 202646 197588 116952 -342388
832536799581131264 202612 197495 116929 -342485
832536799599342976 202629 197501 116947 -342422
832536799617554560 202658 197490 116915 -342453
832536799635766272 202645 197495 116910 -342419
832536799653977856 202563 197467 116852 -342444
832536799672189568 202644 197515 116918 -342436
832536799690401152 202646 197495 116921 -342420
832536799708612864 202602 197448 116913 -342434
832536799726824576 202624 197448 116811 -342413
832536799745036160 202571 197358 116815 -342457
832536799763247872 202635 197487 116926 -342444
832536799781459456 202626 197444 116939 -342423
832536799799671168 202608 197411 116882 -342464
832536799817882752 202555 197453 116920 -342448
832536799836094464 202562 197455 116882 -342419
832536799854306048 202589 197454 116947 -342456
832536799872517760 202623 197556 116899 -342461
832536799890729344 202645 197563 116951 -342410
832536799908941056 202635 197506 116871 -342413
832536799927152768 202615 197495 116907 -342414
832536799945364352 202614 197543 116904 -342415
832536799963576064 202663 197466 116920 -342428
832536799981787648 202625 197522 116921 -342400
832536799999999360 202659 197505 116938 -342415
832536800018210944 202651 197466 116924 -342459
832536800036422596 202666 197545 116931 -342411
832536800054635776 202632 197539 116940 -342389
832536800072848896 202647 197470 116925 -342424
832536800091062016 202627 197459 116923 -342469
832536800109275264 202601 197484 116941 -342430
832536800127488384 202624 197516 116909 -342439
832536800145701504 202679 197561 116909 -342401
832536800163914624 202642 197509 116930 -342439
832536800182127744 202669 197541 116899 -342442
832536800200340864 202597 197544 116916 -342434
832536800218554112 202639 197479 116896 -342502
832536800236767232 202691 197492 116901 -342434
832536800254980352 202659 197509 116898 -342409
832536800273193472 202660 197475 116950 -342410
832536800291406592 202615 197550 116938 -342460
832536800309619712 202567 197528 116967 -342398
832536800327832960 202644 197546 116965 -342373
832536800346046080 202639 197553 116950 -342443
832536800364259200 202668 197541 116946 -342393
832536800382472320 202691 197550 116938 -342385
832536800400685440 201630 196578 115919 -342371
832536800418898560 204439 199144 118777 -342401
832536800437111808 205595 200282 120053 -342409
832536800455324928 206066 200685 120482 -342492
832536800473538048 206344 200987 120761 -342449
832536800491751168 206479 201052 120831 -342437
832536800509964288 206508 201076 120893 -342396
832536800528177536 206507 201119 120912 -342385
832536800546390656 206531 201155 120914 -342401
832536800564603776 206536 201147 120983 -342409
832536800582816896 206583 201179 120945 -342421
832536800601030016 206568 201189 120950 -342399
832536800619243148 206547 201113 120831 -342427
832536800637455616 206563 201212 120962 -342402
832536800655668096 206535 201104 120934 -342409
832536800673880576 206567 201166 120975 -342409
832536800692093056 206603 201191 120958 -342404
832536800710305536 206520 201101 120906 -342465
832536800728518016 206502 201109 120957 -342408
832536800746730496 206538 201122 120933 -342397
832536800764942976 206527 201141 120942 -342391
832536800783155456 206548 201139 120927 -342383
832536800801367936 206553 201154 120918 -342431
832536800819580416 206578 201158 120942 -342382
832536800837792896 206671 201115 120956 -342408
832536800856005376 206638 201143 120936 -342426
832536800874217856 206549 201110 120900 -342413
832536800892430336 206579 201132 120885 -342366
832536800910642816 206588 201132 120931 -342414
832536800928855296 206596 201154 120898 -342390
832536800947067776 206546 201208 120947 -342375
832536800965280256 206587 201137 120941 -342402
832536800983492736 206598 201141 120952 -342401
832536801001705216 206635 201168 120960 -342403
832536801019917696 206589 201134 120901 -342380
832536801038130176 206524 201160 120889 -342444
832536801056342656 206552 201172 120942 -342417
832536801074555136 206515 201156 120891 -342367
832536801092767616 206564 201164 120942 -342411
832536801110980096 206627 201175 120945 -342424
832536801129192576 206622 201259 120994 -342387
832536801147405056 206577 201188 120956 -342384
832536801165617536 206622 201167 120921 -342428
832536801183830016 206595 201190 120983 -342401
832536801202042496 206548 201188 120953 -342386
832536801220254976 206554 201220 120958 -342376
832536801238467456 206522 201133 120940 -342424
832536801256679936 206586 201096 120968 -342415
832536801274892416 206596 201103 120910 -342389
832536801293104896 206545 201120 120976 -342400
832536801311317376 206561 201107 120949 -342422
832536801329529856 206580 201116 120927 -342418
832536801347742336 206579 201147 120967 -342405
832536801365954816 206530 201127 120936 -342384
832536801384167296 206604 201194 120966 -342416
832536801402379776 206561 201149 120978 -342442
832536801420592256 203310 198104 117667 -342403
832536801438804736 207893 201900 122437 -342379
832536801457017186 209871 203525 124446 -342376
832536801475230336 210723 204211 125355 -342345
832536801493443456 211119 204533 125763 -342357
832536801511656576 211295 204613 125932 -342342
832536801529869824 211388 204659 125970 -342374
832536801548082944 211349 204627 126034 -342419
832536801566296064 211407 204679 126057 -342437
832536801584509184 211400 204719 126046 -342418
832536801602722304 211385 204746 126038 -342415
832536801620935424 211384 204719 126023 -342390
832536801639148672 211401 204771 126020 -342363
832536801657361792 211422 204724 126051 -342298
832536801675574912 211377 204701 126046 -342358
832536801693788032 211424 204803 126035 -342364
832536801712001152 211440 204752 126047 -342382
832536801730214272 211379 204763 126085 -342406
832536801748427520 211334 204698 126065 -342394
832536801766640640 211382 204789 126100 -342312
832536801784853760 211347 204726 126132 -342369
832536801803066880 211383 204779 126064 -342348
832536801821280000 211438 204698 126010 -342370
832536801839493120 211421 204758 126054 -342360
832536801857706368 211427 204778 126062 -342366
832536801875919488 211340 204706 126038 -342430
832536801894132608 211399 204786 126068 -342413
832536801912345728 211381 204752 126025 -342371
832536801930558848 211379 204745 126050 -342337
832536801948772096 211381 204750 126054 -342366
832536801966985216 211377 204703 126033 -342360
832536801985198336 211384 204752 126045 -342328
832536802003411456 211399 204727 126043 -342357
832536802021624576 211402 204666 126034 -342397
832536802039837696 211349 204678 125997 -342405
832536802058050944 211358 204773 126091 -342383
832536802076264064 211370 204711 126017 -342368
832536802094477184 211373 204718 126010 -342396
832536802112690304 211380 204722 126036 -342417
832536802130903424 211379 204720 126032 -342381
832536802149116544 211389 204785 126096 -342369
832536802167329792 211392 204811 126071 -342362
832536802185542912 211423 204835 126087 -342353
832536802203756032 211474 204808 126062 -342379
832536802221969152 211427 204762 126091 -342345
832536802240182272 211394 204724 126057 -342339
832536802258395520 211421 204679 126028 -342334
832536802276608640 211424 204698 126011 -342339
832536802294821734 211363 204710 126067 -342367
832536802313032832 211414 204746 126062 -342376
832536802331243904 211465 204773 126062 -342352
832536802349455104 211395 204684 126000 -342396
832536802367666176 211421 204738 126072 -342354
832536802385877248 211366 204655 125991 -342403
832536802404088320 211425 204676 126025 -342355
832536802422299520 205460 199598 119809 -342368
832536802440510592 211475 203420 126572 -342367
832536802458721664 214181 205026 129457 -342348
832536802476932864 215352 205745 130722 -342321
832536802495143936 215864 206064 131324 -342291
832536802513355008 216058 206197 131546 -342303
832536802531566080 216107 206212 131642 -342350
832536802549777280 216162 206243 131705 -342302
832536802567988352 216199 206214 131706 -342290
832536802586199424 216246 206239 131725 -342316
832536802604410624 216223 206263 131712 -342339
832536802622621696 216236 206292 131691 -342391
832536802640832768 216228 206276 131700 -342397
832536802659043840 216208 206280 131701 -342342
832536802677255040 216240 206269 131665 -342362
832536802695466112 216181 206351 131669 -342398
832536802713677184 216136 206273 131695 -342332
832536802731888256 216202 206259 131713 -342366
832536802750099456 216203 206257 131661 -342380
832536802768310528 216276 206285 131652 -342382
832536802786521600 216159 206223 131716 -342357
832536802804732800 216203 206314 131678 -342386
832536802822943872 216191 206209 131646 -342383
832536802841154974 216152 206272 131664 -342384
832536802859368064 216238 206277 131754 -342373
832536802877581184 216205 206283 131739 -342340
832536802895794304 216211 206244 131664 -342348
832536802914007552 216158 206308 131631 -342349
832536802932220672 216177 206303 131736 -342366
832536802950433792 216210 206244 131678 -342356
832536802968646912 216211 206298 131720 -342403
832536802986860032 216172 206239 131693 -342421
832536803005073152 216194 206269 131705 -342342
832536803023286400 216185 206266 131655 -342396
832536803041499520 216208 206243 131682 -342353
832536803059712640 216211 206248 131695 -342391
832536803077925760 216231 206377 131753 -342346
832536803096138880 216187 206310 131708 -342405
832536803114352000 216167 206282 131678 -342327
832536803132565248 216153 206277 131690 -342336
832536803150778368 216187 206221 131640 -342358
832536803168991488 216241 206302 131698 -342364
832536803187204608 216238 206274 131698 -342345
832536803205417728 216247 206315 131692 -342335
832536803223630848 216161 206289 131700 -342299
832536803241844096 216142 206281 131630 -342332
832536803260057216 216211 206341 131700 -342364
832536803278270336 216150 206319 131682 -342324
832536803296483456 216176 206290 131671 -342335
832536803314696576 216169 206288 131665 -342372
832536803332909824 216209 206295 131681 -342356
832536803351122944 216158 206306 131700 -342374
832536803369336064 216223 206319 131736 -342376
832536803387549184 216231 206303 131702 -342349
832536803405762304 216187 206279 131736 -342274
832536803423975424 207482 200334 122333 -342311
832536803442188672 214291 203886 130971 -342274
832536803460401792 217268 205444 134765 -342303
832536803478614912 218557 206064 136391 -342364
832536803496828032 219119 206380 137080 -342330
832536803515041152 219313 206503 137440 -342363
832536803533254272 219460 206558 137575 -342342
832536803551467520 219448 206527 137546 -342352
832536803569680000 219512 206589 137692 -342270
832536803587892480 219494 206590 137617 -342315
832536803606104960 219550 206621 137673 -342307
832536803624317440 219511 206597 137719 -342362
832536803642529920 219478 206573 137661 -342337
832536803660742400 219519 206586 137686 -342255
832536803678954880 219513 206586 137668 -342289
832536803697167360 219453 206597 137576 -342345
832536803715379840 219440 206596 137617 -342337
832536803733592320 219448 206534 137639 -342340
832536803751804800 219483 206586 137602 -342353
832536803770017280 219487 206644 137620 -342313
832536803788229760 219530 206556 137614 -342331
832536803806442240 219510 206530 137561 -342341
832536803824654720 219527 206605 137627 -342331
832536803842867200 219445 206554 137618 -342316
832536803861079680 219498 206539 137648 -342375
832536803879292160 219534 206568 137632 -342385
832536803897504640 219552 206558 137631 -342385
832536803915717120 219501 206545 137619 -342353
832536803933929600 219521 206575 137603 -342356
832536803952142080 219538 206594 137621 -342386
832536803970354560 219497 206547 137630 -342369
832536803988567040 219538 206609 137632 -342324
832536804006779520 219531 206634 137606 -342356
832536804024992000 219548 206610 137616 -342321
832536804043204480 219469 206552 137632 -342323
832536804061416960 219549 206631 137633 -342315
832536804079629440 219493 206570 137579 -342350
832536804097841920 219523 206585 137600 -342316
832536804116054400 219485 206579 137618 -342369
832536804134266880 219482 206542 137599 -342335
832536804152479360 219507 206587 137624 -342364
832536804170691840 219465 206534 137595 -342360
832536804188904320 219458 206547 137547 -342375
832536804207116800 219447 206482 137555 -342415
832536804225329280 219504 206501 137593 -342384
832536804243541760 219496 206515 137620 -342367
832536804261754240 219526 206568 137641 -342308
832536804279966720 219564 206548 137611 -342300
832536804298179200 219485 206521 137580 -342352
832536804316391680 219510 206655 137611 -342342
832536804334604160 219461 206592 137640 -342388
832536804352816640 219455 206598 137648 -342368
832536804371029120 219545 206600 137605 -342406
832536804389241558 219485 206564 137618 -342319
832536804407454720 219510 206599 137633 -342303
832536804425667840 219504 206586 137631 -342283
832536804443880960 220080 206617 140996 -342367
832536804462094208 220354 206709 142529 -342371
832536804480307328 220382 206725 143226 -342312
832536804498520448 220409 206697 143428 -342310
832536804516733568 220500 206764 143600 -342303
832536804534946688 220561 206686 143752 -342321
832536804553159808 220540 206683 143672 -342357
832536804571373056 220584 206696 143710 -342371
832536804589586176 220493 206683 143688 -342382
832536804607799296 220444 206707 143645 -342364
832536804626012416 220498 206692 143683 -342322
832536804644225536 220495 206652 143724 -342368
832536804662438656 220566 206666 143709 -342315
832536804680651904 220492 206698 143677 -342370
832536804698865024 220473 206716 143711 -342370
832536804717078144 220545 206689 143674 -342354
832536804735291264 220572 206647 143734 -342280
832536804753504384 220519 206652 143666 -342332
832536804771717632 220499 206692 143658 -342348
832536804789930752 220471 206641 143630 -342350
832536804808143872 220504 206751 143678 -342390
832536804826356992 220552 206757 143747 -342334
832536804844570112 220546 206737 143720 -342324
832536804862783232 220493 206676 143683 -342320
832536804880996480 220575 206690 143694 -342334
832536804899209600 220485 206646 143712 -342351
832536804917422720 220510 206721 143778 -342330
832536804935635840 220513 206713 143727 -342301
832536804953848960 220532 206725 143807 -342286
832536804972062080 220560 206781 143740 -342262
832536804990275328 220506 206695 143695 -342300
832536805008488448 220476 206650 143722 -342339
832536805026701568 220503 206696 143658 -342296
832536805044914688 220513 206718 143735 -342346
832536805063127828 220591 206692 143762 -342285
832536805081340928 220563 206700 143706 -342337
832536805099554048 220607 206780 143782 -342314
832536805117767168 220557 206742 143714 -342324
832536805135980416 220518 206678 143715 -342371
832536805154193536 220561 206666 143718 -342304
832536805172406656 220513 206718 143745 -342304
832536805190619776 220477 206780 143774 -342284
832536805208832896 220556 206747 143724 -342300
832536805227046016 220576 206761 143709 -342291
832536805245259264 220581 206704 143694 -342282
832536805263472384 220538 206769 143718 -342285
832536805281685504 220522 206684 143734 -342302
832536805299898624 220524 206742 143695 -342310
832536805318111744 220534 206666 143729 -342282
832536805336324864 220547 206710 143788 -342308
832536805354538112 220476 206767 143756 -342357
832536805372751232 220486 206697 143758 -342310
832536805390964352 220552 206743 143776 -342286
832536805409177472 220515 206696 143721 -342288
832536805427390592 220592 206709 143759 -342337
832536805445603712 220570 206742 143715 -342308
832536805463816960 220771 206768 147215 -342263
832536805482030080 220827 206814 148754 -342306
832536805500243200 220766 206801 149341 -342269
832536805518456320 220824 206823 149624 -342308
832536805536669440 220794 206802 149737 -342274
832536805554882688 220870 206876 149895 -342278
832536805573095808 220831 206816 149886 -342303
832536805591308928 220776 206764 149900 -342329
832536805609522048 220785 206764 149855 -342287
832536805627735168 220782 206718 149845 -342313
832536805645948288 220782 206746 149837 -342313
832536805664161536 220728 206750 149823 -342335
832536805682374664 220782 206705 149769 -342286
832536805700589184 220766 206681 149806 -342355
832536805718803712 220765 206788 149883 -342306
832536805737018240 220775 206772 149856 -342351
832536805755232768 220788 206821 149870 -342329
832536805773447296 220757 206759 149872 -342356
832536805791661824 220817 206766 149846 -342289
832536805809876352 220822 206718 149795 -342295
832536805828090880 220807 206769 149833 -342257
832536805846305280 220778 206801 149828 -342293
832536805864519808 220761 206757 149766 -342368
832536805882734336 220767 206726 149804 -342342
832536805900948864 220733 206781 149884 -342271
832536805919163392 220720 206749 149830 -342335
832536805937377920 220780 206721 149808 -342348
832536805955592448 220845 206764 149853 -342314
832536805973806976 220741 206621 149755 -342302
832536805992021504 220678 206720 149764 -342358
832536806010236032 220772 206720 149842 -342352
832536806028450560 220737 206705 149832 -342348
832536806046665088 220766 206765 149821 -342377
832536806064879616 220764 206760 149792 -342304
832536806083094144 220825 206798 149794 -342354
832536806101308672 220866 206818 149849 -342265
832536806119523072 220806 206840 149868 -342304
832536806137737600 220750 206833 149837 -342342
832536806155952128 220662 206791 149825 -342397
832536806174166656 220746 206778 149851 -342318
832536806192381184 220743 206744 149813 -342314
832536806210595712 220793 206791 149861 -342247
832536806228810240 220776 206724 149880 -342287
832536806247024768 220779 206743 149897 -342283
832536806265239296 220812 206767 149845 -342273
832536806283453824 220762 206770 149779 -342320
832536806301668352 220729 206769 149860 -342351
832536806319882880 220750 206770 149851 -342324
832536806338097408 220796 206771 149934 -342253
832536806356311936 220796 206792 149901 -342285
832536806374526464 220757 206829 149856 -342298
832536806392740864 220778 206766 149811 -342324
832536806410955392 220783 206763 149842 -342320
832536806429169962 220666 206756 149795 -342355
832536806447383808 220759 206754 149826 -342308
832536806465597696 220744 206763 149850 -342347
832536806483811584 220798 206754 153211 -342284
832536806502025472 220842 206807 154746 -342315
832536806520239360 220863 206828 155497 -342336
832536806538453248 220876 206852 155729 -342376
832536806556667136 220938 206793 155804 -342321
832536806574881024 220922 206772 155896 -342324
832536806593094912 220920 206821 155938 -342310
832536806611308800 220913 206846 155935 -342251
832536806629522688 220824 206737 155929 -342316
832536806647736576 220872 206828 155945 -342300
832536806665950464 220867 206817 155949 -342318
832536806684164352 220889 206808 155920 -342267
832536806702378240 220922 206863 155919 -342242
832536806720592128 220897 206877 155999 -342254
832536806738806016 220933 206901 155976 -342223
832536806757019904 220867 206811 155936 -342266
832536806775233792 220839 206811 155949 -342260
832536806793447680 220860 206892 155974 -342276
832536806811661568 220847 206803 155875 -342299
832536806829875456 220883 206844 155928 -342350
832536806848089344 220866 206825 155982 -342276
832536806866303232 220869 206846 155966 -342254
832536806884517120 220859 206826 155966 -342266
832536806902731008 220887 206859 155957 -342246
832536806920944896 220825 206801 155923 -342340
832536806939158784 220877 206794 155885 -342312
832536806957372672 220892 206821 155987 -342305
832536806975586560 220932 206800 155952 -342305
832536806993800320 220928 206826 155986 -342247
832536807012014208 220891 206801 155922 -342267
832536807030228096 220921 206815 155977 -342331
832536807048441984 220910 206823 155913 -342287
832536807066655872 220894 206799 155878 -342303
832536807084869760 220881 206729 155974 -342296
832536807103083648 220878 206816 155935 -342279
832536807121297536 220845 206759 155867 -342319
832536807139511508 220829 206767 155895 -342339
832536807157725568 220916 206775 155901 -342314
832536807175939584 220853 206805 155897 -342391
832536807194153600 220850 206803 155919 -342348
832536807212367616 220845 206776 155919 -342342
832536807230581760 220893 206757 155876 -342335
832536807248795776 220859 206723 155820 -342364
832536807267009792 220842 206719 155849 -342387
832536807285223808 220853 206819 155870 -342352
832536807303437824 220862 206825 155901 -342339
832536807321651840 220815 206822 155898 -342353
832536807339865984 220878 206805 155955 -342293
832536807358080000 220869 206784 155934 -342354
832536807376294016 220885 206782 155896 -342287
832536807394508032 220868 206797 155883 -342353
832536807412722048 220877 206757 155921 -342315
832536807430936064 220830 206761 155944 -342332
832536807449150080 220886 206774 155937 -342306
832536807467364224 220813 206700 155865 -342318
832536807485578240 220830 206811 159330 -342316
832536807503792256 220841 206778 160804 -342300
832536807522006272 220921 206776 161513 -342282
832536807540220288 220922 206824 161800 -342243
832536807558434304 220929 206832 161895 -342301
832536807576648448 220895 206812 161940 -342311
832536807594862464 220875 206785 161975 -342331
832536807613076480 220920 206780 162045 -342330
832536807631290496 220951 206806 162045 -342307
832536807649504512 220930 206838 162053 -342297
832536807667718528 220925 206818 162050 -342301
832536807685932544 220930 206780 162000 -342330
832536807704146688 220957 206823 161991 -342311
832536807722360704 220883 206743 162006 -342360
832536807740574720 220918 206846 162018 -342302
832536807758788736 220933 206856 161986 -342277
832536807777002752 220973 206816 162057 -342250
832536807795216768 220968 206846 162050 -342303
832536807813430912 220947 206810 161992 -342357
832536807831644928 220936 206862 161954 -342319
832536807849858944 220880 206833 162025 -342301
832536807868072960 220937 206884 162010 -342280
832536807886286966 220979 206883 162039 -342299
832536807904501504 220889 206875 162025 -342293
832536807922716032 220953 206798 161993 -342308
832536807940930560 220994 206806 162031 -342277
832536807959145088 220988 206771 161994 -342348
832536807977359744 220916 206805 162009 -342332
832536807995574272 220969 206782 162022 -342329
832536808013788800 220997 206839 162084 -342290
832536808032003328 220903 206799 162016 -342289
832536808050217856 220967 206804 162012 -342290
832536808068432384 220948 206778 161986 -342323
832536808086646912 220923 206793 162016 -342293
832536808104861440 220915 206785 161966 -342304
832536808123076096 220935 206866 161992 -342317
832536808141290624 220966 206860 162079 -342330
832536808159505152 220950 206805 161984 -342310
832536808177719680 220979 206889 162031 -342281
832536808195934208 220952 206848 162002 -342285
832536808214148736 220944 206844 162015 -342368
832536808232363264 220956 206859 162049 -342305
832536808250577792 220996 206894 162032 -342304
832536808268792448 220875 206786 162021 -342273
832536808287006976 220938 206904 162045 -342252
832536808305221504 220968 206837 162005 -342347
832536808323436032 220949 206791 161999 -342339
832536808341650560 220959 206846 162014 -342314
832536808359865088 220935 206823 161981 -342317
832536808378079616 220949 206840 161980 -342297
832536808396294272 220938 206801 161985 -342350
832536808414508800 220913 206846 162035 -342300
832536808432723328 220886 206800 162003 -342377
832536808450937856 220948 206871 162035 -342333
832536808469152384 220957 206867 161987 -342336
832536808487366912 220915 206799 165369 -342337
832536808505581440 220976 206837 166897 -342303
832536808523795968 220935 206867 167599 -342267
832536808542010624 220976 206874 167855 -342294
832536808560225118 220969 206849 167967 -342384
832536808578439168 220945 206817 168019 -342332
832536808596653184 220910 206844 168073 -342336
832536808614867200 220998 206837 168052 -342300
832536808633081216 220929 206786 168060 -342328
832536808651295232 220961 206829 168092 -342350
832536808669509248 221028 206849 168100 -342335
832536808687723136 221024 206795 168060 -342298
832536808705937152 221034 206906 168120 -342297
832536808724151168 220978 206857 168113 -342289
832536808742365184 220949 206867 168118 -342304
832536808760579200 220920 206896 168073 -342327
832536808778793216 220978 206889 168092 -342268
832536808797007232 220950 206902 168130 -342267
832536808815221248 220973 206828 168086 -342282
832536808833435264 221020 206896 168127 -342290
832536808851649280 220986 206820 168037 -342255
832536808869863296 220950 206793 168046 -342351
832536808888077312 220974 206803 168033 -342342
832536808906291200 220957 206845 168088 -342296
832536808924505216 220977 206862 168110 -342312
832536808942719232 220949 206880 168067 -342301
832536808960933248 220970 206855 168056 -342307
832536808979147264 220960 206879 168055 -342295
832536808997361280 221036 206899 168101 -342299
832536809015575296 220996 206825 168095 -342345
832536809033789312 220952 206785 168099 -342310
832536809052003328 220917 206805 168080 -342337
832536809070217344 220942 206832 168069 -342331
832536809088431360 221003 206875 168080 -342302
832536809106645248 220994 206855 168101 -342284
832536809124859264 220973 206857 168102 -342321
832536809143073280 220961 206811 168074 -342272
832536809161287296 220970 206795 168031 -342366
832536809179501312 220945 206869 168094 -342284
832536809197715328 220963 206823 168077 -342360
832536809215929344 220937 206851 168078 -342352
832536809234143360 220939 206784 168031 -342380
832536809252357376 220926 206822 168049 -342280
832536809270571392 220911 206866 168085 -342265
832536809288785408 220923 206859 168036 -342357
832536809306999424 220972 206816 168057 -342364
832536809325213312 221010 206814 168021 -342313
832536809343427328 221005 206886 168055 -342327
832536809361641344 221062 206920 168113 -342272
832536809379855360 220976 206818 168043 -342345
832536809398069346 221008 206803 168074 -342300
832536809416282496 220979 206801 168045 -342349
832536809434495616 220988 206833 168093 -342364
832536809452708736 221003 206828 168093 -342342
832536809470921984 220955 206838 168092 -342385
832536809489135104 220967 206857 168068 -342331
832536809507348224 209630 200598 138103 -342369
832536809525561344 204609 197810 125035 -342391
832536809543774464 202454 196597 119403 -342380
832536809561987584 201567 196110 116917 -342410
832536809580200832 201095 195925 115818 -342443
832536809598413952 200946 195855 115387 -342442
832536809616627072 200878 195837 115250 -342409
832536809634840192 200819 195717 115093 -342417
832536809653053312 200775 195742 115098 -342454
832536809671266432 200764 195730 115101 -342418
832536809689479680 200783 195718 115043 -342468
832536809707692800 200797 195749 115053 -342415
832536809725905920 200796 195734 115045 -342483
832536809744119040 200854 195754 115053 -342409
832536809762332160 200794 195714 115080 -342400
832536809780545280 200764 195749 115038 -342450
832536809798758528 200830 195788 115098 -342419
832536809816971648 200845 195752 115069 -342454
832536809835184768 200799 195751 115053 -342417
832536809853397888 200758 195713 115093 -342442
832536809871611008 200775 195749 115127 -342435
832536809889824256 200806 195754 115055 -342418
832536809908037376 200827 195805 115067 -342364
832536809926250496 200855 195797 115117 -342300
832536809944463614 200846 195785 115032 -342434
832536809962676608 200871 195756 115091 -342418
832536809980889600 200758 195778 115066 -342413
832536809999102592 200751 195802 115040 -342391
832536810017315584 200818 195751 115123 -342411
832536810035528704 200810 195759 115126 -342365
832536810053741696 200745 195711 115072 -342370
832536810071954688 200791 195696 115105 -342423
832536810090167680 200854 195741 115137 -342416
832536810108380672 200764 195670 115123 -342368
832536810126593664 200763 195684 115083 -342376
832536810144806656 200838 195732 115139 -342393
832536810163019776 200809 195687 115082 -342469
832536810181232768 200765 195715 115083 -342473
832536810199445760 200747 195727 115092 -342413
832536810217658752 200754 195701 115020 -342423
832536810235871744 200809 195761 115048 -342427
832536810254084736 200770 195732 115052 -342449
832536810272297728 200758 195790 115045 -342437
832536810290510720 200833 195805 115027 -342445
832536810308723840 200759 195729 115024 -342449
832536810326936832 200791 195755 115079 -342390
832536810345149824 200761 195708 115039 -342442
832536810363362816 200811 195768 115112 -342410
832536810381575808 200783 195640 115044 -342447
832536810399788800 200794 195700 115089 -342427
832536810418001792 200810 195762 115039 -342421
832536810436214912 200789 195741 115027 -342423
832536810454427904 200820 195798 115100 -342366
832536810472640896 200767 195715 115010 -342423
832536810490853888 200826 195795 115077 -342414
832536810509066880 200818 195675 115035 -342401
832536810527279872 200776 195783 115042 -342416
832536810545492864 200782 195714 115055 -342445
832536810563705984 200761 195661 115026 -342467
832536810581918976 200782 195710 115059 -342433
832536810600131968 200775 195756 115044 -342422
832536810618344960 200816 195752 115062 -342467
832536810636557952 200763 195741 115061 -342405
832536810654770944 200761 195714 114968 -342444
832536810672983936 200727 195709 115036 -342459
832536810691197056 200817 195748 115094 -342422
832536810709410048 200800 195724 115030 -342416
832536810727623040 200757 195640 115044 -342411
832536810745836032 200829 195798 115070 -342419
832536810764049024 200782 195703 115101 -342421
832536810782262060 200826 195698 115071 -342403
832536810800476160 200825 195760 115115 -342431
832536810818690304 200787 195674 115078 -342438
832536810836904320 200764 195745 115047 -342408
832536810855118464 200778 195733 115062 -342393
832536810873332480 200791 195770 115064 -342366
832536810891546624 200769 195733 115099 -342354
832536810909760640 200789 195734 115149 -342381
832536810927974784 200805 195755 115106 -342441
832536810946188800 200740 195664 115075 -342474
832536810964402944 200771 195737 115074 -342433
832536810982616960 200743 195694 115110 -342473
832536811000831104 200751 195711 115052 -342445
832536811019045120 200816 195736 115105 -342374
832536811037259264 200762 195693 115055 -342416
832536811055473280 200782 195748 115110 -342424
832536811073687424 200799 195746 115142 -342498
832536811091901440 200810 195730 115080 -342489
832536811110115584 200852 195817 115087 -342414
832536811128329600 200831 195780 115071 -342435
832536811146543744 200747 195736 115078 -342454
832536811164757760 200774 195738 115020 -342442
832536811182971904 200758 195763 115045 -342440
832536811201185920 200812 195743 115058 -342410
832536811219400064 200838 195769 115066 -342415
832536811237614080 200785 195746 115015 -342433
832536811255828224 200810 195696 115024 -342425
832536811274042240 200816 195746 115045 -342464
832536811292256384 200796 195719 114988 -342456
832536811310470400 200852 195788 115079 -342407
832536811328684544 200793 195721 115039 -342416
832536811346898560 200848 195752 115088 -342421
832536811365112704 200793 195755 115084 -342374
832536811383326720 200844 195754 115064 -342386
832536811401540864 200861 195738 115105 -342402
832536811419754880 200795 195781 115054 -342399
832536811437969024 200819 195744 115079 -342420
832536811456183040 200768 195710 115061 -342488
832536811474397184 200755 195703 115080 -342417
832536811492611200 200772 195717 115061 -342401
832536811510825344 200761 195731 115056 -342408
832536811529039360 200757 195684 115028 -342404
832536811547253504 200736 195743 115071 -342502
832536811565467520 200741 195753 115100 -342441
832536811583681664 200759 195702 115033 -342469
832536811601895808 200782 195709 115044 -342444
832536811620109824 200821 195718 115063 -342384
832536811638323968 200774 195695 115070 -342403
832536811656537984 200759 195711 115056 -342421
832536811674752128 200764 195706 115027 -342410
832536811692966144 200781 195720 115063 -342385
832536811711180288 200794 195805 115096 -342399
832536811729394296 200811 195711 115025 -342424
832536811747608320 200757 195692 115014 -342459
832536811765822336 200837 195718 115080 -342433
832536811784036352 200812 195764 115130 -342437
832536811802250496 200791 195748 114995 -342462
832536811820464512 200782 195770 115045 -342423
832536811838678528 200794 195734 115053 -342410
832536811856892544 200761 195742 115041 -342418
832536811875106688 200772 195750 115069 -342399
832536811893320704 200768 195750 115041 -342407
832536811911534720 200819 195718 115083 -342406
832536811929748736 200732 195679 115074 -342440
832536811947962880 200796 195738 115112 -342407
832536811966176896 200754 195724 115046 -342466
832536811984390912 200744 195716 115040 -342479
832536812002604928 200785 195702 115072 -342495
832536812020818944 200766 195695 115043 -342448
832536812039033088 200763 195726 115083 -342401
832536812057247104 200805 195696 115054 -342443
832536812075461120 200836 195737 115099 -342465
832536812093675136 200817 195676 115030 -342434
832536812111889280 200847 195692 115100 -342408
832536812130103296 200781 195659 115060 -342439
832536812148317312 200835 195725 115069 -342415
832536812166531328 200828 195743 115143 -342418
832536812184745472 200786 195755 115086 -342420
832536812202959488 200803 195762 115081 -342392
832536812221173504 200765 195776 115070 -342448
832536812239387520 200760 195730 115058 -342500
832536812257601536 200800 195782 115064 -342389
832536812275815680 200795 195764 115032 -342404
832536812294029696 200821 195781 115064 -342382
832536812312243712 200782 195734 115075 -342372
832536812330457728 200757 195742 115088 -342473
832536812348671872 200744 195730 115082 -342428
832536812366885888 200755 195709 115011 -342479
832536812385099904 200770 195763 115039 -342430
832536812403313920 200775 195773 115060 -342484
832536812421528064 200769 195813 115030 -342475
832536812439742080 200844 195768 115050 -342458
832536812457956096 200828 195732 115055 -342439
832536812476170112 200848 195708 115011 -342416
832536812494384128 200764 195744 115037 -342424
832536812512598272 200712 195714 115099 -342411
832536812530812288 200731 195696 115053 -342407
832536812549026304 200734 195746 115021 -342398
832536812567240320 200752 195727 115044 -342434
832536812585454464 200791 195635 115097 -342485
832536812603668480 200805 195743 115065 -342484
832536812621882522 200733 195633 115052 -342487
832536812640095104 200770 195696 115041 -342456
832536812658307712 200783 195708 115016 -342405
832536812676520448 200827 195730 115057 -342434
832536812694733056 200838 195690 115093 -342439
832536812712945664 200758 195635 115049 -342482
832536812731158272 200782 195734 115126 -342410
832536812749371008 200786 195699 115033 -342406
832536812767583616 200792 195762 115003 -342391
832536812785796224 200776 195761 115062 -342424
832536812804008960 200764 195748 115039 -342397
832536812822221568 200815 195805 115103 -342371
832536812840434176 200814 195716 115107 -342419
832536812858646784 200812 195767 115143 -342406
832536812876859520 200819 195726 115087 -342472
832536812895072128 200749 195632 115073 -342482
832536812913284736 200761 195691 115065 -342487
832536812931497344 200837 195745 115109 -342449
832536812949710080 200812 195788 115171 -342420
832536812967922688 200819 195759 115131 -342417
832536812986135296 200792 195750 115097 -342419
832536813004348032 200842 195763 115104 -342384
832536813022560640 200746 195731 115064 -342435
832536813040773248 200768 195755 115067 -342462
832536813058985856 200803 195721 115002 -342415
832536813077198592 200810 195738 115100 -342396
832536813095411200 200791 195668 115050 -342414
832536813113623808 200798 195735 115052 -342369
832536813131836544 200839 195723 115100 -342376
832536813150049152 200715 195682 115064 -342455
832536813168261760 200816 195683 115100 -342374
832536813186474368 200862 195715 115097 -342408
832536813204687104 200818 195735 115090 -342359
832536813222899712 200796 195720 115073 -342360
832536813241112320 200775 195730 115092 -342370
832536813259324928 200851 195788 115100 -342353
832536813277537664 200771 195802 115076 -342399
832536813295750272 200816 195760 115065 -342415
832536813313962880 200851 195707 115063 -342396
832536813332175616 200878 195760 115094 -342407
832536813350388224 200821 195713 115114 -342359
832536813368600832 200820 195751 115059 -342376
832536813386813440 200857 195797 115089 -342370
832536813405026176 200847 195765 115064 -342422
832536813423238784 200836 195704 115084 -342372
832536813441451392 200799 195776 115105 -342346
832536813459664128 200771 195730 115099 -342380
832536813477876736 200868 195730 115105 -342385
832536813496089344 200837 195779 115026 -342373
832536813514301952 200839 195735 115095 -342364
832536813532514688 200777 195778 115104 -342406
832536813550727296 200827 195756 115100 -342413
832536813568939988 200844 195747 115065 -342401
832536813587153024 200758 195775 115022 -342420
832536813605366016 200791 195719 115061 -342455
832536813623579008 200874 195768 115126 -342405
832536813641792000 200837 195743 115134 -342486
832536813660005120 200832 195784 115104 -342384
832536813678218112 200837 195779 115039 -342456
832536813696431104 200791 195736 115020 -342444
832536813714644096 200791 195763 115062 -342409
832536813732857088 200864 195792 115096 -342400
832536813751070080 200869 195735 115081 -342407
832536813769283200 200845 195830 115122 -342380
832536813787496192 200825 195747 115060 -342437
832536813805709184 200777 195726 115039 -342475
832536813823922176 200795 195731 115079 -342439
832536813842135168 200787 195745 115060 -342389
832536813860348160 200768 195728 115054 -342387
832536813878561280 200800 195704 115053 -342410
832536813896774272 200800 195728 115088 -342436
832536813914987264 200737 195712 115033 -342438
832536813933200256 200797 195776 115059 -342346
832536813951413248 200759 195760 114961 -342428
832536813969626240 200803 195683 115053 -342401
832536813987839360 200740 195684 115048 -342476
832536814006052352 200838 195673 115024 -342430
832536814024265344 200818 195697 115049 -342413
832536814042478336 200877 195715 115091 -342424
832536814060691328 200849 195783 115168 -342373
832536814078904320 200801 195759 115075 -342374
832536814097117312 200897 195787 115101 -342373
832536814115330432 200798 195718 115101 -342401
832536814133543424 200761 195754 115130 -342407
832536814151756416 200814 195728 115047 -342371
832536814169969408 200813 195770 115096 -342411
832536814188182400 200792 195721 115046 -342393
832536814206395392 200831 195727 115107 -342441
832536814224608512 200859 195741 115103 -342406
832536814242821504 200782 195664 115065 -342439
832536814261034496 200876 195800 115093 -342381
832536814279247488 200843 195764 115061 -342432
832536814297460480 200820 195766 115088 -342377
832536814315673472 200804 195635 115081 -342421
832536814333886592 200794 195694 115067 -342404
832536814352099584 200797 195725 115079 -342407
832536814370312576 200784 195648 115031 -342444
832536814388525568 200796 195707 115069 -342413
832536814406738560 200789 195726 114997 -342435
832536814424951576 200741 195703 115027 -342375
