TIMESTAMP PPG0 PPG1 PPG2 AMBIENT
832536686655379712 244671 239730 158933 -296969
832536686673561472 244689 239711 158901 -297018
832536686691743360 244649 239759 158880 -297020
832536686709925120 244671 239749 158914 -296983
832536686728107008 244696 239736 158901 -296958
832536686746288768 244660 239755 158903 -297006
832536686764470656 244674 239767 158913 -296992
832536686782652416 244617 239793 158930 -296967
832536686800834304 244631 239836 158926 -296924
832536686819016064 244605 239809 158934 -296997
832536686837197952 244627 239729 158957 -296989
832536686855379712 244610 239780 158971 -296944
832536686873561472 244638 239738 158963 -296943
832536686891743360 244630 239676 158929 -296956
832536686909925120 244660 239764 158996 -296949
832536686928107008 244647 239742 158964 -296966
832536686946288768 244642 239718 158954 -296981
832536686964470656 244622 239720 158942 -297033
832536686982652416 244618 239680 158934 -297032
832536687000834304 244680 239760 158923 -296983
832536687019016064 244717 239737 158915 -296958
832536687037197952 244722 239769 158939 -297014
832536687055379712 244650 239706 158864 -297002
832536687073561472 244591 239704 158924 -297012
832536687091743360 244587 239662 158920 -296950
832536687109925120 244636 239772 158950 -296933
832536687128107008 244663 239720 158921 -296955
832536687146288768 244653 239736 158903 -297009
832536687164470656 244603 239716 158926 -297039
832536687182652416 244674 239774 158941 -296998
832536687200834304 244663 239720 158901 -297006
832536687219016064 244645 239696 158917 -297030
832536687237197952 244683 239784 158899 -297003
832536687255379712 244636 239738 158990 -297011
832536687273561472 244623 239738 158948 -296998
832536687291743360 244635 239713 158954 -297005
832536687309925120 244640 239684 158920 -297015
832536687328107008 244667 239748 158933 -296945
832536687346288768 244622 239704 158874 -297039
832536687364470656 244694 239789 158931 -297000
832536687382652416 244650 239709 158894 -296986
832536687400834304 244662 239731 158931 -296983
832536687419016064 244594 239705 158909 -296995
832536687437197952 244613 239700 158934 -297001
832536687455379712 244633 239741 158924 -296997
832536687473561472 244649 239688 158927 -296983
832536687491743360 244628 239686 158907 -296984
832536687509925120 244644 239738 158960 -296994
832536687528107008 244740 239777 158951 -296979
832536687546288768 244690 239716 158935 -296941
832536687564470656 244604 239720 158891 -297001
832536687582652478 244698 239758 158927 -296981
832536687600866048 244701 239772 158920 -296961
832536687619079680 244661 239801 158911 -297003
832536687637293312 244668 239784 158914 -296967
832536687655506944 244667 239822 158927 -296985
832536687673720448 244657 239755 158894 -297022
832536687691934080 244714 239859 158949 -296992
832536687710147712 244634 239792 158879 -297041
832536687728361344 244633 239792 158926 -297000
832536687746574976 244665 239835 158991 -296938
832536687764788608 244644 239779 158914 -296945
832536687783002112 244644 239764 158870 -297009
832536687801215744 244651 239726 158911 -297005
832536687819429376 244673 239764 158981 -296971
832536687837643008 244649 239751 158921 -296992
832536687855856640 244731 239801 158935 -296934
832536687874070272 244670 239802 158940 -297004
832536687892283776 244674 239787 158937 -296966
832536687910497408 244677 239854 158925 -296952
832536687928711040 244661 239740 158929 -296992
832536687946924672 244674 239713 158940 -296993
832536687965138304 244642 239735 158982 -296953
832536687983351936 244630 239763 158946 -296912
832536688001565568 244668 239808 158969 -296981
832536688019779072 244651 239760 158994 -296946
832536688037992704 244653 239747 158948 -296964
832536688056206336 244653 239781 158879 -296999
832536688074419968 244705 239765 158965 -296968
832536688092633600 244680 239749 158934 -296988
832536688110847232 244659 239731 158956 -297020
832536688129060736 244633 239747 158911 -296959
832536688147274368 244682 239766 158908 -296949
832536688165488000 244600 239745 158944 -297022
832536688183701632 244623 239760 158939 -297011
832536688201915264 244706 239803 158964 -297015
832536688220128896 244640 239754 158909 -297001
832536688238342528 244677 239800 158947 -296963
832536688256556032 244739 239788 158979 -296963
832536688274769664 244674 239740 158979 -296993
832536688292983296 244684 239785 159024 -297005
832536688311196928 244707 239823 159044 -296979
832536688329410560 244681 239768 158993 -297004
832536688347624192 244639 239750 158966 -296971
832536688365837696 244661 239717 158907 -296956
832536688384051328 244686 239735 158911 -296933
832536688402264960 244678 239717 158915 -296955
832536688420478592 244661 239765 158951 -296921
832536688438692224 244714 239805 158986 -296983
832536688456905856 244644 239803 158959 -296994
832536688475119360 244646 239743 158929 -296960
832536688493332992 244655 239741 158976 -296942
832536688511546624 244650 239797 158877 -296961
832536688529760300 244639 239720 158933 -296943
832536688547973120 244634 239753 158908 -296969
832536688566185984 244628 239739 158888 -296993
832536688584398848 244750 239801 158928 -296920
832536688602611840 244659 239777 158958 -296958
832536688620824704 244664 239734 158894 -296999
832536688639037568 244609 239716 158889 -296935
832536688657250432 244645 239782 158988 -296946
832536688675463296 244645 239764 158985 -296953
832536688693676288 244632 239788 158977 -296961
832536688711889152 244618 239781 158965 -297004
832536688730102016 244688 239785 158917 -296962
832536688748314880 244639 239688 158907 -297039
832536688766527744 244657 239791 158976 -296989
832536688784740608 244684 239786 158937 -296959
832536688802953600 244724 239757 158954 -296928
832536688821166464 244706 239807 158985 -296971
832536688839379328 244672 239789 158931 -296982
832536688857592192 244687 239840 159001 -297000
832536688875805056 244713 239772 158932 -296985
832536688894018048 244631 239701 158861 -297002
832536688912230912 244677 239725 158923 -296972
832536688930443776 244720 239709 158925 -296965
832536688948656640 244698 239723 158984 -296945
832536688966869504 244629 239762 158925 -297031
832536688985082368 244684 239801 158966 -296948
832536689003295360 244661 239690 158945 -296984
832536689021508224 244673 239785 158923 -296958
832536689039721088 244679 239775 158940 -296985
832536689057933952 244694 239735 158974 -296979
832536689076146816 244668 239757 158952 -296888
832536689094359808 244652 239750 158939 -296959
832536689112572672 244640 239715 158903 -296947
832536689130785536 244671 239762 158965 -296980
832536689148998400 244657 239794 158978 -296969
832536689167211264 244637 239739 158865 -297003
832536689185424256 244620 239747 158909 -297003
832536689203637120 244663 239743 158954 -296965
832536689221849984 244642 239758 158955 -296955
832536689240062848 244599 239659 158897 -296983
832536689258275712 244610 239707 158909 -296995
832536689276488704 244603 239721 158859 -297032
832536689294701568 244676 239763 158944 -296932
832536689312914432 244676 239703 158892 -296951
832536689331127296 244522 239664 158849 -297009
832536689349340160 244596 239726 158914 -296967
832536689367553024 244556 239723 158871 -296997
832536689385766016 244627 239733 158911 -296941
832536689403978924 244680 239752 158943 -296994
832536689422191232 244628 239715 158968 -297002
832536689440403584 244662 239713 158925 -297004
832536689458615936 244601 239695 158903 -296978
832536689476828160 244694 239680 158931 -296944
832536689495040512 244637 239713 158914 -296955
832536689513252864 244646 239688 158913 -296982
832536689531465216 244685 239709 158940 -296937
832536689549677440 244635 239726 158933 -296900
832536689567889792 244617 239784 158892 -296967
832536689586102144 244663 239772 158972 -296982
832536689604314496 244650 239758 158911 -296967
832536689622526720 244645 239801 158981 -296983
832536689640739072 244695 239793 158967 -296905
832536689658951424 244644 239777 158891 -296971
832536689677163776 244713 239747 159007 -296952
832536689695376000 244693 239738 158960 -296963
832536689713588352 244723 239705 158963 -296905
832536689731800704 244717 239682 158960 -296954
832536689750013056 244691 239751 158957 -296955
832536689768225280 244669 239776 158938 -296931
832536689786437632 244662 239752 158932 -296939
832536689804649984 244642 239711 158952 -296981
832536689822862336 244662 239741 158924 -297010
832536689841074560 244646 239723 158958 -296950
832536689859286912 244725 239746 158937 -296978
832536689877499264 244642 239780 158912 -296924
832536689895711616 244691 239788 158976 -296930
832536689913923840 244685 239802 158914 -296949
832536689932136192 244666 239702 158870 -296988
832536689950348544 244673 239800 158914 -296962
832536689968560896 244653 239738 158852 -297027
832536689986773120 244724 239742 158940 -296950
832536690004985472 244645 239816 158965 -296932
832536690023197824 244683 239789 158921 -296928
832536690041410176 244703 239782 158937 -296935
832536690059622400 244738 239762 158939 -296896
832536690077834752 244700 239743 158941 -296945
832536690096047104 244680 239738 158939 -296931
832536690114259456 244693 239686 158909 -296944
832536690132471808 244647 239750 158899 -296942
832536690150684032 244684 239775 158932 -296908
832536690168896384 244628 239732 158925 -297015
832536690187108736 244644 239815 158943 -297002
832536690205321088 244632 239776 158949 -296982
832536690223533312 244660 239754 158903 -296979
832536690241745664 244665 239789 158991 -296970
832536690259958016 244667 239769 158962 -296989
832536690278170368 244652 239802 159009 -296910
832536690296382592 244672 239742 158931 -296979
832536690314594944 244650 239743 158948 -296955
832536690332807296 244615 239717 158946 -296986
832536690351019608 244680 239769 158991 -296895
832536690369233536 244703 239751 158951 -296928
832536690387447424 244623 239740 158888 -296963
832536690405661184 244703 239784 158958 -296931
832536690423875072 244682 239737 158981 -296922
832536690442088960 244697 239782 158971 -296955
832536690460302848 244706 239818 158927 -296959
832536690478516608 244707 239777 158965 -296964
832536690496730496 244703 239715 159003 -296920
832536690514944384 244657 239708 158904 -296972
832536690533158144 244574 239742 158911 -296988
832536690551372032 244676 239760 158956 -296917
832536690569585920 244693 239756 158932 -296933
832536690587799808 244650 239783 158893 -296996
832536690606013568 244635 239762 158922 -296949
832536690624227456 244636 239759 158949 -296979
832536690642441344 244648 239779 158972 -296924
832536690660655232 244660 239773 158963 -296972
832536690678868992 244663 239791 158930 -297020
832536690697082880 244615 239741 158905 -296996
832536690715296768 244619 239702 158899 -296970
832536690733510528 244599 239740 158928 -296981
832536690751724416 244644 239748 158929 -296944
832536690769938304 244662 239728 158976 -297004
832536690788152192 244699 239736 158947 -296995
832536690806365952 244677 239722 158911 -297004
832536690824579840 244664 239724 158914 -297022
832536690842793728 244640 239753 158899 -296996
832536690861007488 244623 239763 158950 -296985
832536690879221376 244621 239666 158959 -297020
832536690897435264 244633 239715 158899 -296976
832536690915649152 244674 239752 158943 -296982
832536690933862912 244660 239798 158950 -296993
832536690952076800 244655 239776 158946 -296999
832536690970290688 244671 239762 158942 -296995
832536690988504448 244619 239732 158948 -296975
832536691006718336 244623 239664 158882 -296972
832536691024932224 256610 245268 189039 -296970
832536691043146112 261835 247787 202117 -296919
832536691061359872 264111 248816 207908 -296856
832536691079573760 265078 249287 210347 -296886
832536691097787648 265552 249528 211443 -296860
832536691116001408 265685 249618 211853 -296858
832536691134215248 265788 249602 212116 -296856
832536691152428416 265787 249633 212166 -296926
832536691170641536 265882 249704 212203 -296912
832536691188854656 265835 249680 212220 -296902
832536691207067904 265813 249632 212200 -296841
832536691225281024 265843 249639 212214 -296878
832536691243494144 265890 249715 212162 -296915
832536691261707264 265916 249638 212180 -296881
832536691279920384 265890 249650 212272 -296841
832536691298133504 265891 249595 212227 -296876
832536691316346752 265859 249643 212182 -296863
832536691334559872 265826 249604 212116 -296908
832536691352772992 265853 249629 212177 -296869
832536691370986112 265909 249669 212191 -296880
832536691389199232 265858 249626 212209 -296886
832536691407412352 265884 249625 212211 -296880
832536691425625600 265841 249660 212180 -296880
832536691443838720 265805 249571 212179 -296849
832536691462051840 265848 249637 212167 -296824
832536691480264960 265873 249622 212186 -296870
832536691498478080 265838 249659 212153 -296797
832536691516691200 265872 249667 212305 -296841
832536691534904448 265873 249688 212243 -296878
832536691553117568 265858 249653 212266 -296834
832536691571330688 265858 249644 212203 -296860
832536691589543808 265793 249679 212214 -296829
832536691607756928 265827 249668 212179 -296844
832536691625970176 265814 249622 212201 -296861
832536691644183296 265793 249628 212162 -296882
832536691662396416 265834 249675 212162 -296836
832536691680609536 265838 249643 212229 -296853
832536691698822656 265938 249682 212263 -296822
832536691717035776 265835 249636 212194 -296897
832536691735249024 265855 249644 212231 -296824
832536691753462144 265790 249551 212174 -296882
832536691771675264 265879 249648 212203 -296859
832536691789888384 265912 249624 212170 -296869
832536691808101504 265930 249692 212168 -296814
832536691826314624 265913 249669 212212 -296835
832536691844527872 265841 249704 212175 -296854
832536691862740992 265864 249659 212206 -296844
832536691880954112 265893 249672 212231 -296852
832536691899167232 265807 249641 212224 -296863
832536691917380352 265905 249694 212298 -296831
832536691935593600 265831 249677 212217 -296858
832536691953806720 265863 249611 212246 -296894
832536691972019796 265846 249715 212230 -296856
832536691990234112 265875 249669 212196 -296871
832536692008448384 265816 249652 212235 -296896
832536692026662784 265905 249646 212247 -296863
832536692044877056 265878 249601 212253 -296827
832536692063091328 265863 249611 212225 -296833
832536692081305728 265857 249594 212230 -296818
832536692099520000 265876 249635 212182 -296856
832536692117734272 265870 249662 212226 -296789
832536692135948672 265909 249678 212217 -296816
832536692154162944 265887 249625 212243 -296871
832536692172377216 265929 249648 212310 -296834
832536692190591616 265944 249627 212240 -296839
832536692208805888 265904 249607 212237 -296831
832536692227020160 265842 249652 212162 -296826
832536692245234560 265893 249643 212223 -296822
832536692263448832 265855 249668 212221 -296851
832536692281663232 265888 249687 212207 -296875
832536692299877504 265877 249641 212182 -296902
832536692318091776 265884 249682 212262 -296861
832536692336306176 265856 249710 212217 -296888
832536692354520448 265865 249593 212201 -296893
832536692372734720 265840 249631 212240 -296831
832536692390949120 265894 249592 212277 -296853
832536692409163392 265844 249590 212180 -296852
832536692427377664 265839 249629 212244 -296839
832536692445592064 265945 249672 212233 -296843
832536692463806336 265917 249655 212202 -296849
832536692482020608 265903 249696 212234 -296869
832536692500235008 265854 249662 212169 -296896
832536692518449280 265835 249624 212148 -296922
832536692536663552 265831 249590 212161 -296836
832536692554877952 265881 249653 212196 -296856
832536692573092224 265860 249710 212249 -296853
832536692591306496 265930 249641 212178 -296917
832536692609520896 265914 249633 212234 -296880
832536692627735168 265915 249672 212207 -296905
832536692645949440 265875 249633 212206 -296858
832536692664163840 265892 249642 212192 -296828
832536692682378112 265861 249637 212213 -296841
832536692700592384 265930 249655 212229 -296816
832536692718806784 265829 249659 212225 -296863
832536692737021056 265803 249596 212242 -296900
832536692755235456 265788 249634 212199 -296899
832536692773449728 265855 249671 212194 -296881
832536692791664000 265833 249613 212163 -296832
832536692809878400 265895 249693 212197 -296842
832536692828092672 265856 249667 212174 -296859
832536692846306944 265811 249630 212196 -296877
832536692864521344 265783 249650 212214 -296912
832536692882735616 265785 249642 212195 -296869
832536692900949888 265812 249642 212160 -296901
832536692919164240 265906 249663 212247 -296869
832536692937378304 265962 249728 212252 -296795
832536692955592320 265842 249667 212262 -296850
832536692973806336 265828 249618 212206 -296896
832536692992020352 265741 249583 212164 -296946
832536693010234240 265787 249622 212214 -296871
832536693028448256 253843 244025 182083 -296926
832536693046662272 248630 241516 168969 -296994
832536693064876288 246321 240474 163226 -297042
832536693083090304 245377 240084 160848 -297009
832536693101304320 244963 239908 159730 -296995
832536693119518208 244800 239855 159309 -296975
832536693137732224 244695 239759 159077 -297042
832536693155946240 244670 239767 159007 -296971
832536693174160256 244629 239790 159014 -296994
832536693192374272 244661 239780 158958 -297045
832536693210588288 244681 239805 158981 -296964
832536693228802176 244698 239808 158992 -296961
832536693247016192 244619 239762 158906 -296966
832536693265230208 244605 239711 158927 -296986
832536693283444224 244662 239772 158973 -296947
832536693301658240 244649 239803 159000 -297006
832536693319872256 244633 239781 158964 -296992
832536693338086144 244656 239781 158918 -296962
832536693356300160 244614 239740 158926 -296975
832536693374514176 244622 239750 158931 -296968
832536693392728192 244639 239748 158973 -296969
832536693410942208 244630 239742 158935 -296992
832536693429156224 244682 239725 158904 -296976
832536693447370112 244698 239787 158942 -296989
832536693465584128 244741 239771 159031 -296919
832536693483798144 244671 239674 158842 -296979
832536693502012160 244659 239736 158913 -296995
832536693520226176 244652 239704 158918 -296980
832536693538440070 244673 239776 158948 -296945
832536693556653184 244651 239704 158881 -296932
832536693574866304 244679 239775 158923 -296969
832536693593079552 244711 239811 158906 -296924
832536693611292672 244636 239797 158942 -296967
832536693629505920 244689 239781 158968 -296958
832536693647719040 244660 239752 158986 -296985
832536693665932288 244683 239769 158942 -296936
832536693684145408 244681 239794 158961 -296964
832536693702358656 244640 239731 158972 -297014
832536693720571776 244659 239787 158983 -296986
832536693738785024 244638 239729 158868 -296993
832536693756998144 244655 239750 158934 -297010
832536693775211392 244684 239746 158949 -296930
832536693793424512 244681 239734 158894 -296962
832536693811637760 244691 239810 158950 -296930
832536693829850880 244694 239754 158932 -296942
832536693848064000 244739 239818 158997 -296932
832536693866277248 244668 239760 158906 -296968
832536693884490368 244635 239791 158897 -296988
832536693902703616 244634 239732 158918 -296973
832536693920916736 244655 239747 158931 -296949
832536693939129984 244713 239776 158937 -296984
832536693957343104 244734 239746 158913 -296963
832536693975556352 244685 239763 158926 -296977
832536693993769472 244659 239740 158891 -296948
832536694011982720 244645 239776 158925 -296951
832536694030195840 245717 240714 159987 -296939
832536694048409088 246100 241186 160413 -296989
832536694066622208 246338 241354 160584 -296973
832536694084835456 246445 241481 160733 -296930
832536694103048576 246478 241533 160735 -296927
832536694121261696 246481 241470 160783 -296980
832536694139474944 246433 241511 160781 -296945
832536694157688064 246480 241513 160770 -296976
832536694175901312 246499 241571 160789 -296932
832536694194114432 246450 241487 160781 -296956
832536694212327680 246482 241543 160771 -296950
832536694230540800 246513 241517 160794 -296943
832536694248754048 246477 241524 160767 -296962
832536694266967168 246501 241503 160784 -296990
832536694285180440 246487 241520 160814 -296978
832536694303394304 246460 241524 160802 -296954
832536694321608192 246540 241545 160882 -296886
832536694339821952 246513 241508 160762 -296962
832536694358035840 246514 241507 160812 -296965
832536694376249600 246511 241522 160814 -296904
832536694394463488 246525 241539 160832 -296944
832536694412677376 246474 241512 160762 -296982
832536694430891136 246515 241566 160772 -296978
832536694449105024 246469 241495 160777 -297048
832536694467318784 246511 241570 160821 -296939
832536694485532672 246498 241565 160780 -296966
832536694503746560 246476 241618 160820 -297023
832536694521960320 246475 241531 160835 -296930
832536694540174208 246470 241531 160789 -296948
832536694558387968 246498 241499 160815 -296961
832536694576601856 246541 241627 160852 -296916
832536694594815616 246572 241554 160836 -296926
832536694613029504 246565 241527 160891 -296885
832536694631243392 246534 241534 160820 -296917
832536694649457152 246504 241538 160859 -296907
832536694667671040 246451 241462 160759 -296962
832536694685884800 246459 241474 160768 -296966
832536694704098688 246496 241538 160810 -296938
832536694722312576 246566 241585 160846 -296930
832536694740526336 246527 241572 160818 -297000
832536694758740224 246502 241588 160829 -296960
832536694776953984 246516 241559 160831 -296966
832536694795167872 246531 241568 160883 -296950
832536694813381760 246536 241549 160869 -296936
832536694831595520 246458 241567 160808 -296942
832536694849809408 246519 241548 160843 -296927
832536694868023168 246473 241585 160812 -296969
832536694886237056 246470 241507 160718 -296976
832536694904450944 246493 241560 160790 -296948
832536694922664704 246471 241486 160770 -297017
832536694940878592 246515 241576 160838 -297012
832536694959092352 246554 241579 160838 -296916
832536694977306240 246492 241510 160848 -296966
832536694995520128 246470 241520 160798 -296950
832536695013733888 246480 241532 160828 -296980
832536695031947776 246474 241521 160724 -296969
832536695050161536 248689 243492 163006 -296975
832536695068375424 249715 244381 164051 -296986
832536695086589222 250153 244769 164494 -296956
832536695104802944 250274 244867 164655 -296980
832536695123016704 250352 244987 164768 -296942
832536695141230592 250415 244985 164815 -296961
832536695159444352 250429 245010 164870 -296972
832536695177658112 250426 245053 164795 -296930
832536695195872000 250470 245005 164777 -296973
832536695214085760 250444 245021 164821 -296908
832536695232299648 250416 245057 164768 -296931
832536695250513408 250375 245109 164802 -296912
832536695268727168 250455 245029 164781 -296990
832536695286941056 250426 245035 164828 -296966
832536695305154816 250434 245029 164865 -296968
832536695323368576 250435 245026 164842 -296949
832536695341582464 250401 244984 164775 -296976
832536695359796224 250436 245049 164838 -296954
832536695378009984 250393 245048 164790 -297000
832536695396223872 250439 245082 164875 -296924
832536695414437632 250432 245029 164782 -296950
832536695432651392 250474 245019 164797 -296947
832536695450865280 250471 245010 164816 -296959
832536695469079040 250384 245070 164831 -296973
832536695487292928 250427 245058 164875 -296930
832536695505506688 250405 244993 164837 -296934
832536695523720448 250410 245000 164764 -296973
832536695541934336 250432 244975 164798 -296920
832536695560148096 250446 245056 164808 -296946
832536695578361856 250422 245048 164837 -296952
832536695596575744 250435 245055 164807 -296932
832536695614789504 250445 245001 164746 -296967
832536695633003264 250454 245051 164812 -296935
832536695651217152 250417 245011 164795 -296967
832536695669430912 250377 245030 164798 -296959
832536695687644672 250449 245002 164811 -296970
832536695705858560 250424 245036 164851 -296959
832536695724072320 250453 245051 164847 -296934
832536695742286208 250463 245040 164824 -296952
832536695760499968 250420 245048 164811 -296938
832536695778713728 250426 245010 164859 -296942
832536695796927616 250414 245078 164824 -296927
832536695815141376 250407 245062 164826 -296986
832536695833355136 250398 245093 164883 -296926
832536695851569024 250381 245030 164798 -296996
832536695869782784 250472 245047 164847 -296962
832536695887996544 250431 245011 164830 -296959
832536695906210432 250409 245013 164852 -296867
832536695924424288 250434 245003 164847 -296959
832536695942637696 250455 245143 164874 -296922
832536695960851072 250415 245131 164871 -296979
832536695979064576 250437 245103 164809 -297019
832536695997277952 250427 245066 164854 -296964
832536696015491456 250430 245005 164807 -296952
832536696033704832 250455 245012 164836 -296945
832536696051918336 253163 246780 167677 -296969
832536696070131712 254414 247612 169004 -296924
832536696088345088 254880 247861 169518 -296935
832536696106558592 255161 248032 169725 -296932
832536696124771968 255270 248140 169826 -296897
832536696142985472 255281 248179 169885 -296915
832536696161198848 255250 248189 169910 -296953
832536696179412352 255299 248217 169927 -296925
832536696197625728 255235 248062 169870 -296992
832536696215839104 255311 248145 169922 -296928
832536696234052608 255364 248152 169933 -296928
832536696252265984 255345 248189 169910 -296931
832536696270479488 255324 248114 169904 -296978
832536696288692864 255233 248078 169861 -297012
832536696306906368 255394 248161 169911 -296963
832536696325119744 255370 248212 169963 -296969
832536696343333120 255324 248185 169936 -296950
832536696361546624 255316 248221 169981 -296935
832536696379760000 255298 248170 169898 -296960
832536696397973504 255299 248107 169905 -296971
832536696416186880 255347 248141 169933 -296919
832536696434400384 255355 248145 169946 -296916
832536696452613760 255332 248164 169942 -296983
832536696470827136 255367 248199 169998 -296894
832536696489040640 255349 248247 169919 -296934
832536696507254016 255386 248189 169940 -296915
832536696525467520 255296 248113 169871 -296988
832536696543680896 255296 248159 169989 -296916
832536696561894400 255286 248127 169940 -296885
832536696580107776 255327 248097 169945 -296922
832536696598321240 255344 248160 169886 -296977
832536696616535936 255391 248159 169972 -296921
832536696634750592 255316 248151 169926 -296950
832536696652965248 255294 248220 169973 -296884
832536696671179904 255323 248188 169964 -296887
832536696689394560 255272 248172 169900 -296934
832536696707609216 255276 248152 169863 -296916
832536696725824000 255342 248124 169899 -296996
832536696744038656 255316 248122 169904 -296955
832536696762253312 255311 248093 169913 -296995
832536696780467968 255266 248119 169891 -297011
832536696798682624 255272 248095 169934 -296945
832536696816897280 255284 248153 169915 -296897
832536696835111936 255368 248139 169960 -296932
832536696853326592 255325 248141 169944 -296935
832536696871541248 255329 248191 169982 -296907
832536696889755904 255280 248146 169960 -296948
832536696907970688 255270 248109 169906 -296994
832536696926185344 255317 248114 169927 -296951
832536696944400000 255269 248069 169926 -296961
832536696962614656 255282 248074 169876 -296947
832536696980829312 255326 248128 169940 -296978
832536696999043968 255287 248130 169901 -296989
832536697017258624 255314 248130 169934 -296959
832536697035473280 255374 248163 169946 -296960
832536697053687936 258076 248720 173062 -296966
832536697071902592 259250 248991 174487 -296962
832536697090117248 259848 249054 175109 -296971
832536697108332032 260078 249086 175347 -296971
832536697126546688 260209 249123 175458 -296977
832536697144761344 260259 249078 175541 -296961
832536697162976000 260256 249159 175590 -296973
832536697181190656 260231 249151 175616 -296985
832536697199405312 260274 249169 175649 -296931
832536697217619968 260274 249126 175621 -296929
832536697235834624 260299 249199 175616 -296936
832536697254049280 260300 249186 175592 -296908
832536697272263936 260300 249181 175598 -296890
832536697290478720 260256 249164 175616 -296921
832536697308693376 260289 249206 175662 -296924
832536697326908032 260290 249190 175576 -296916
832536697345122640 260322 249169 175551 -296922
832536697363336576 260243 249158 175581 -296980
832536697381550464 260302 249184 175631 -296979
832536697399764352 260305 249181 175586 -296935
832536697417978240 260291 249177 175616 -296905
832536697436192128 260326 249235 175659 -296920
832536697454406016 260308 249211 175627 -296916
832536697472619904 260243 249188 175600 -296885
832536697490833792 260319 249228 175647 -296887
832536697509047680 260266 249115 175605 -296899
832536697527261568 260322 249157 175625 -296884
832536697545475456 260242 249099 175597 -296877
832536697563689344 260285 249141 175610 -296946
832536697581903232 260222 249135 175564 -296945
832536697600117120 260237 249220 175603 -296884
832536697618331008 260231 249158 175610 -296976
832536697636544896 260279 249129 175612 -296954
832536697654758784 260227 249142 175632 -296945
832536697672972672 260251 249180 175610 -296948
832536697691186560 260277 249185 175650 -296931
832536697709400448 260261 249125 175510 -296978
832536697727614336 260310 249134 175582 -296946
832536697745828224 260265 249130 175581 -296937
832536697764042112 260303 249141 175609 -296937
832536697782256000 260256 249156 175581 -296953
832536697800469888 260273 249197 175637 -296920
832536697818683776 260313 249120 175613 -296916
832536697836897664 260279 249151 175598 -296927
832536697855111552 260264 249137 175605 -296903
832536697873325440 260193 249141 175598 -296945
832536697891539328 260205 249156 175585 -296918
832536697909753088 260252 249183 175539 -296914
832536697927966976 260240 249175 175494 -296928
832536697946180864 260222 249181 175582 -296912
832536697964394752 260249 249166 175595 -296964
832536697982608640 260299 249201 175652 -296899
832536698000822528 260332 249202 175667 -296888
832536698019036416 260264 249144 175611 -296917
832536698037250304 260307 249193 175618 -296922
832536698055464186 260289 249175 175645 -296893
832536698073678464 262405 249297 178940 -296876
832536698091892736 263350 249351 180390 -296934
832536698110107008 263739 249328 181086 -296949
832536698128321280 263910 249323 181411 -296859
832536698146535552 263975 249358 181500 -296897
832536698164749824 264006 249305 181551 -296900
832536698182963968 264074 249389 181605 -296880
832536698201178240 264050 249397 181587 -296908
832536698219392512 264060 249410 181593 -296918
832536698237606784 264005 249382 181587 -296931
832536698255821056 264029 249410 181608 -296925
832536698274035328 264005 249395 181500 -296916
832536698292249600 263996 249391 181535 -296942
832536698310463872 263986 249420 181542 -296927
832536698328678144 263981 249373 181520 -296985
832536698346892416 263969 249379 181484 -297006
832536698365106688 263977 249404 181494 -296936
832536698383320960 264000 249364 181558 -296894
832536698401535232 263963 249327 181584 -296888
832536698419749376 263958 249331 181555 -296886
832536698437963648 264044 249426 181607 -296908
832536698456177920 263997 249366 181621 -296926
832536698474392192 263968 249348 181586 -296941
832536698492606464 263973 249339 181566 -296882
832536698510820736 263968 249432 181562 -296932
832536698529035008 264036 249398 181604 -296921
832536698547249280 263992 249392 181550 -296937
832536698565463552 263973 249378 181570 -296929
832536698583677824 264030 249434 181623 -296891
832536698601892096 263985 249354 181582 -296938
832536698620106240 263983 249365 181546 -296907
832536698638320512 264009 249376 181597 -296899
832536698656534784 264033 249382 181581 -296890
832536698674749056 264023 249419 181598 -296931
832536698692963328 264038 249416 181556 -296927
832536698711177600 263961 249396 181557 -296969
832536698729391872 263980 249414 181574 -296908
832536698747606144 263965 249389 181598 -296924
832536698765820416 263942 249391 181620 -296948
832536698784034688 263963 249369 181574 -296903
832536698802248960 264006 249421 181590 -296876
832536698820463232 264000 249310 181562 -296944
832536698838677504 264036 249386 181597 -296900
832536698856891648 264012 249359 181552 -296894
832536698875105946 264044 249349 181623 -296902
832536698893320064 263996 249343 181599 -296944
832536698911534208 263980 249341 181577 -296913
832536698929748352 263997 249392 181577 -296920
832536698947962496 263964 249399 181517 -296955
832536698966176512 263976 249366 181605 -296942
832536698984390656 264081 249404 181657 -296884
832536699002604800 263993 249436 181599 -296945
832536699020818944 263969 249453 181606 -296891
832536699039033088 263995 249415 181607 -296932
832536699057247232 264022 249463 181588 -296891
832536699075461376 264045 249391 181633 -296884
832536699093675520 264736 249490 184995 -296852
832536699111889536 265049 249476 186504 -296890
832536699130103680 265115 249487 187169 -296927
832536699148317824 265260 249514 187443 -296944
832536699166531968 265253 249481 187544 -296927
832536699184746112 265304 249493 187651 -296946
832536699202960256 265263 249445 187716 -296882
832536699221174400 265262 249473 187668 -296898
832536699239388416 265238 249497 187653 -296899
832536699257602560 265234 249468 187632 -296938
832536699275816704 265260 249491 187680 -296902
832536699294030848 265255 249480 187646 -296948
832536699312244992 265255 249467 187642 -296949
832536699330459136 265209 249527 187680 -296968
832536699348673280 265318 249465 187647 -296951
832536699366887424 265243 249406 187614 -296952
832536699385101440 265238 249421 187679 -296977
832536699403315584 265272 249482 187692 -296939
832536699421529728 265279 249454 187654 -296932
832536699439743882 265341 249490 187681 -296878
832536699457957888 265334 249497 187655 -296926
832536699476171904 265345 249477 187702 -296888
832536699494385792 265297 249444 187677 -296915
832536699512599808 265299 249496 187745 -296943
832536699530813696 265265 249457 187707 -296896
832536699549027712 265314 249436 187664 -296879
832536699567241728 265344 249511 187717 -296891
832536699585455616 265328 249459 187638 -296897
832536699603669632 265302 249524 187682 -296859
832536699621883648 265350 249488 187682 -296911
832536699640097536 265323 249462 187647 -296875
832536699658311552 265377 249504 187695 -296922
832536699676525440 265315 249471 187683 -296946
832536699694739456 265336 249524 187723 -296854
832536699712953472 265358 249476 187695 -296896
832536699731167360 265261 249476 187664 -296876
832536699749381376 265294 249528 187668 -296875
832536699767595392 265334 249537 187673 -296869
832536699785809280 265359 249471 187673 -296894
832536699804023296 265270 249496 187629 -296891
832536699822237184 265315 249488 187700 -296900
832536699840451200 265255 249474 187681 -296928
832536699858665216 265249 249525 187675 -296900
832536699876879104 265310 249489 187699 -296861
832536699895093120 265258 249457 187683 -296933
832536699913307008 265291 249478 187653 -296912
832536699931521024 265277 249487 187643 -296938
832536699949735040 265258 249448 187641 -296867
832536699967948928 265266 249484 187599 -296884
832536699986162944 265302 249459 187695 -296894
832536700004376960 265314 249449 187643 -296891
832536700022590848 265302 249402 187621 -296942
832536700040804864 265274 249449 187674 -296939
832536700059018752 265312 249431 187693 -296917
832536700077232768 265247 249501 187677 -296917
832536700095446784 265425 249524 190998 -296925
832536700113660670 265502 249525 192609 -296922
832536700131874432 265578 249569 193287 -296867
832536700150088192 265615 249575 193610 -296852
832536700168301952 265590 249583 193716 -296915
832536700186515840 265649 249605 193816 -296902
832536700204729600 265574 249554 193814 -296935
832536700222943360 265618 249523 193874 -296902
832536700241157120 265615 249558 193795 -296896
832536700259371008 265563 249522 193834 -296937
832536700277584768 265567 249470 193851 -296947
832536700295798528 265619 249534 193865 -296915
832536700314012288 265541 249493 193747 -296971
832536700332226176 265636 249534 193813 -296895
832536700350439936 265640 249539 193793 -296894
832536700368653696 265613 249507 193801 -296909
832536700386867456 265619 249497 193740 -296941
832536700405081344 265624 249548 193807 -296929
832536700423295104 265563 249546 193805 -296915
832536700441508864 265575 249510 193852 -296892
832536700459722624 265592 249546 193852 -296909
832536700477936512 265583 249535 193854 -296917
832536700496150272 265607 249545 193920 -296887
832536700514364032 265604 249523 193821 -296916
832536700532577792 265607 249534 193838 -296904
832536700550791680 265591 249546 193833 -296862
832536700569005440 265637 249541 193818 -296867
832536700587219200 265545 249544 193772 -296901
832536700605432960 265557 249539 193759 -296898
832536700623646848 265589 249549 193844 -296901
832536700641860608 265605 249564 193767 -296886
832536700660074368 265599 249558 193818 -296900
832536700678288128 265591 249542 193805 -296883
832536700696502016 265607 249512 193772 -296901
832536700714715776 265665 249494 193779 -296896
832536700732929536 265568 249474 193822 -296875
832536700751143296 265619 249574 193833 -296919
832536700769357184 265620 249496 193808 -296895
832536700787570944 265550 249517 193825 -296950
832536700805784704 265632 249628 193850 -296915
832536700823998464 265632 249582 193851 -296916
832536700842212352 265601 249603 193826 -296868
832536700860426112 265613 249571 193815 -296903
832536700878639872 265614 249567 193808 -296918
832536700896853632 265625 249590 193855 -296883
832536700915067520 265562 249510 193852 -296893
832536700933281280 265566 249581 193879 -296895
832536700951495040 265589 249576 193864 -296902
832536700969708878 265637 249532 193799 -296901
832536700987922944 265616 249599 193816 -296893
832536701006136960 265594 249557 193867 -296927
832536701024351104 265581 249582 193874 -296885
832536701042565120 265594 249580 193866 -296901
832536701060779264 265571 249504 193734 -296907
832536701078993280 265598 249551 193806 -296897
832536701097207296 265686 249507 196859 -296912
832536701115421440 265664 249553 198594 -296944
832536701133635456 265681 249601 199333 -296895
832536701151849600 265689 249625 199640 -296874
832536701170063616 265753 249655 199809 -296876
832536701188277632 265735 249569 199897 -296874
832536701206491776 265708 249604 199909 -296896
832536701224705792 265684 249571 199888 -296922
832536701242919936 265699 249624 199924 -296868
832536701261133952 265742 249556 199901 -296925
832536701279347968 265743 249582 199951 -296888
832536701297562112 265712 249617 199975 -296894
832536701315776128 265688 249665 199952 -296913
832536701333990272 265689 249528 199938 -296898
832536701352204288 265665 249590 199968 -296925
832536701370418304 265741 249584 199978 -296859
832536701388632448 265760 249639 199926 -296868
832536701406846464 265731 249568 199919 -296879
832536701425060608 265756 249526 199929 -296925
832536701443274624 265771 249517 199906 -296897
832536701461488640 265751 249622 199986 -296833
832536701479702784 265700 249605 199934 -296896
832536701497916800 265648 249624 199924 -296879
832536701516130944 265661 249574 199923 -296899
832536701534344960 265672 249546 199934 -296868
832536701552558976 265751 249600 199927 -296861
832536701570773098 265724 249611 200003 -296895
832536701588986240 265768 249591 199944 -296869
832536701607199360 265791 249573 199975 -296870
832536701625412480 265714 249559 199963 -296886
832536701643625728 265742 249604 199948 -296880
832536701661838848 265704 249558 199933 -296938
832536701680051968 265753 249612 199995 -296901
832536701698265088 265702 249571 199961 -296884
832536701716478208 265737 249629 199950 -296885
832536701734691328 265721 249603 199936 -296831
832536701752904576 265721 249579 199934 -296860
832536701771117696 265693 249614 199862 -296899
832536701789330816 265729 249608 199854 -296858
832536701807543936 265691 249559 199878 -296951
832536701825757056 265742 249637 199968 -296899
832536701843970176 265704 249569 199926 -296905
832536701862183424 265722 249607 200003 -296869
832536701880396544 265722 249562 199947 -296902
832536701898609664 265671 249489 199980 -296922
832536701916822784 265689 249493 199982 -296892
832536701935035904 265712 249547 199943 -296909
832536701953249024 265743 249556 199924 -296878
832536701971462272 265768 249639 199967 -296853
832536701989675392 265714 249585 199890 -296878
832536702007888512 265698 249600 199904 -296893
832536702026101632 265742 249582 199935 -296911
832536702044314752 265721 249573 199858 -296956
832536702062528000 265751 249559 199885 -296887
832536702080741120 265712 249626 199970 -296920
832536702098954240 265682 249537 199910 -296936
832536702117167360 265840 249663 203152 -296828
832536702135380480 265805 249666 204816 -296825
832536702153593600 265794 249560 205471 -296905
832536702171806848 265759 249600 205796 -296856
832536702190019968 265768 249645 205944 -296914
832536702208233076 265756 249684 206041 -296834
832536702226446848 265826 249626 205992 -296877
832536702244660608 265780 249593 206001 -296888
832536702262874368 265828 249666 206041 -296880
832536702281088128 265814 249616 206023 -296876
832536702299302016 265756 249562 206064 -296918
832536702317515776 265792 249550 206066 -296910
832536702335729536 265824 249653 206087 -296870
832536702353943296 265801 249592 206013 -296859
832536702372157056 265845 249600 206063 -296910
832536702390370816 265834 249660 206080 -296807
832536702408584576 265809 249633 206001 -296861
832536702426798464 265850 249616 206111 -296881
832536702445012224 265818 249635 206090 -296916
832536702463225984 265860 249656 206042 -296887
832536702481439744 265896 249650 206073 -296852
832536702499653504 265820 249625 206061 -296863
832536702517867264 265859 249681 206100 -296817
832536702536081024 265772 249620 206108 -296899
832536702554294912 265771 249598 206132 -296868
832536702572508672 265807 249629 206081 -296858
832536702590722432 265834 249601 206066 -296901
832536702608936192 265804 249573 206009 -296913
832536702627149952 265809 249588 206008 -296925
832536702645363712 265803 249601 206046 -296916
832536702663577472 265775 249667 206053 -296953
832536702681791360 265801 249668 206066 -296888
832536702700005120 265812 249634 206073 -296859
832536702718218880 265789 249633 206069 -296876
832536702736432640 265824 249611 206052 -296858
832536702754646400 265822 249587 206030 -296864
832536702772860160 265808 249635 206032 -296870
832536702791073920 265801 249667 206108 -296888
832536702809287808 265767 249561 206064 -296921
832536702827501568 265770 249609 206063 -296901
832536702845715328 265805 249629 206093 -296895
832536702863929088 265845 249627 206108 -296860
832536702882142848 265820 249630 206074 -296910
832536702900356608 265800 249682 206069 -296880
832536702918570368 265792 249638 206107 -296849
832536702936784256 265738 249563 206055 -296896
832536702954998016 265715 249559 206040 -296879
832536702973211776 265787 249612 206066 -296892
832536702991425536 265830 249632 206117 -296927
832536703009639296 265799 249620 206121 -296939
832536703027853056 265715 249611 206111 -296914
832536703046066816 265767 249575 206121 -296863
832536703064280704 265777 249597 206068 -296908
832536703082494434 265788 249600 206067 -296904
832536703100707584 265788 249597 205988 -296924
832536703118920704 265826 249609 208378 -296894
832536703137133824 265871 249687 210546 -296901
832536703155347072 265895 249658 211458 -296862
832536703173560192 265831 249625 211828 -296842
832536703191773312 265891 249616 212002 -296884
832536703209986432 265871 249678 212052 -296894
832536703228199552 265932 249635 212166 -296858
832536703246412672 265898 249634 212086 -296864
832536703264625920 265958 249661 212165 -296833
832536703282839040 265864 249688 212173 -296886
832536703301052160 265930 249684 212210 -296802
832536703319265280 265879 249655 212142 -296829
832536703337478400 265862 249723 212176 -296864
832536703355691520 265830 249665 212134 -296881
832536703373904768 265871 249692 212193 -296829
832536703392117888 265890 249639 212200 -296873
832536703410331008 265909 249672 212152 -296839
832536703428544128 265833 249651 212162 -296911
832536703446757248 265868 249626 212178 -296910
832536703464970368 265841 249554 212166 -296895
832536703483183616 265835 249634 212146 -296898
832536703501396736 265911 249656 212133 -296877
832536703519609856 265922 249663 212216 -296943
832536703537822976 265893 249632 212180 -296849
832536703556036096 265862 249690 212220 -296885
832536703574249344 265908 249668 212138 -296858
832536703592462464 265882 249630 212189 -296832
832536703610675584 265794 249596 212156 -296885
832536703628888704 265859 249611 212213 -296815
832536703647101824 265854 249637 212199 -296873
832536703665314944 265872 249670 212152 -296820
832536703683528192 265847 249621 212165 -296879
832536703701741312 265817 249659 212132 -296834
832536703719954412 265838 249678 212132 -296814
832536703738168192 265837 249669 212168 -296839
832536703756381952 265878 249635 212204 -296807
832536703774595712 265891 249635 212185 -296827
832536703792809344 265881 249693 212200 -296899
832536703811023104 265854 249670 212160 -296873
832536703829236864 265867 249646 212127 -296867
832536703847450624 265886 249651 212182 -296857
832536703865664384 265907 249558 212168 -296833
832536703883878016 265854 249574 212152 -296897
832536703902091776 265848 249604 212141 -296915
832536703920305536 265871 249586 212150 -296852
832536703938519296 265899 249641 212124 -296839
832536703956733056 265929 249649 212194 -296843
832536703974946816 265891 249616 212166 -296875
832536703993160448 265873 249646 212167 -296886
832536704011374208 265907 249686 212238 -296833
832536704029587968 265869 249675 212210 -296916
832536704047801728 265906 249629 212161 -296910
832536704066015488 265881 249639 212179 -296890
832536704084229120 265813 249684 212145 -296892
832536704102442880 265838 249644 212165 -296873
832536704120656640 265864 249647 212152 -296905
832536704138870400 255873 246369 184348 -296945
832536704157084160 249537 242603 169963 -296999
832536704175297792 246806 241022 163754 -296994
832536704193511552 245638 240267 161001 -296987
832536704211725312 245060 240012 159819 -296992
832536704229939072 244807 239921 159354 -296972
832536704248152832 244741 239790 159126 -297006
832536704266366592 244702 239789 158998 -296995
832536704284580224 244687 239789 159012 -296945
832536704302793984 244671 239732 158954 -296971
832536704321007744 244665 239816 158986 -296995
832536704339221504 244642 239765 158990 -297006
832536704357435264 244684 239784 158997 -296993
832536704375648904 244602 239764 158958 -296961
832536704393862784 244642 239754 158939 -296989
832536704412076672 244698 239796 158959 -296945
832536704430290560 244687 239793 158995 -296969
832536704448504448 244571 239752 158963 -296992
832536704466718464 244616 239762 158959 -296942
832536704484932352 244663 239720 158896 -296966
832536704503146240 244693 239788 158962 -296955
832536704521360128 244680 239767 158971 -296938
832536704539574016 244626 239766 158933 -297012
832536704557787904 244681 239760 158955 -297013
832536704576001792 244655 239788 158975 -296993
832536704594215680 244689 239786 158960 -296932
832536704612429696 244690 239776 158989 -296958
832536704630643584 244740 239754 158985 -296939
832536704648857472 244650 239719 158939 -297016
832536704667071360 244691 239777 158980 -296992
832536704685285248 244663 239753 158961 -296988
832536704703499136 244633 239699 158947 -296996
832536704721713024 244663 239701 158927 -297024
832536704739927040 244644 239750 158937 -297036
832536704758140928 244640 239739 158913 -297018
832536704776354816 244625 239760 158897 -297020
832536704794568704 244644 239742 158903 -297009
832536704812782592 244659 239731 158920 -296966
832536704830996480 244684 239771 159006 -296946
832536704849210368 244707 239753 159023 -296916
832536704867424384 244663 239751 158986 -296931
832536704885638272 244676 239736 158960 -296978
832536704903852160 244656 239759 158977 -296977
832536704922066048 244677 239776 158961 -296981
832536704940279936 244676 239789 158916 -297004
832536704958493824 244617 239724 158892 -296939
832536704976707712 244648 239762 158910 -296931
832536704994921600 244652 239768 158948 -296930
832536705013135616 244696 239708 158872 -296961
832536705031349504 244685 239706 158956 -296972
832536705049563392 244693 239746 158966 -296945
832536705067777280 244740 239754 158877 -296964
832536705085991168 244678 239742 158941 -297000
832536705104205056 244667 239784 158995 -297013
832536705122418944 244679 239800 158973 -296993
832536705140632960 244730 239832 158974 -296941
832536705158846848 244678 239751 158929 -296967
832536705177060736 244717 239790 158957 -296976
832536705195274624 244657 239820 158955 -296973
832536705213488512 244644 239733 158929 -296960
832536705231702400 244703 239700 158928 -297011
832536705249916288 244723 239699 158977 -296978
832536705268130304 244702 239740 158947 -297002
832536705286344192 244721 239698 158993 -296949
832536705304558080 244693 239754 158972 -296946
832536705322771984 244661 239753 158915 -296992
832536705340985088 244739 239733 158948 -296984
832536705359198208 244655 239723 158957 -296987
832536705377411200 244691 239788 158974 -297020
832536705395624320 244637 239726 158963 -296986
832536705413837440 244610 239751 158913 -296989
832536705432050560 244636 239759 158938 -296969
832536705450263552 244670 239765 158992 -296980
832536705468476672 244686 239816 158960 -296967
832536705486689792 244660 239782 158943 -296962
832536705504902784 244712 239805 158906 -296971
832536705523115904 244678 239784 158912 -296992
832536705541329024 244678 239717 158920 -296995
832536705559542144 244615 239721 158895 -296984
832536705577755136 244667 239798 158983 -296938
832536705595968256 244702 239739 158967 -296930
832536705614181376 244640 239751 158945 -297004
832536705632394368 244598 239723 158913 -296968
832536705650607488 244645 239785 158975 -297009
832536705668820608 244631 239780 158963 -297021
832536705687033728 244684 239772 158931 -296986
832536705705246720 244652 239767 158924 -296959
832536705723459840 244625 239802 158966 -296980
832536705741672960 244595 239750 158906 -297012
832536705759885952 244676 239839 158975 -296930
832536705778099072 244623 239785 158977 -296988
832536705796312192 244667 239809 158927 -296941
832536705814525312 244677 239759 158945 -296943
832536705832738304 244625 239779 158929 -297000
832536705850951424 244650 239765 158939 -296983
832536705869164544 244681 239736 158999 -296969
832536705887377536 244623 239726 158943 -296994
832536705905590656 244625 239788 158946 -297002
832536705923803776 244602 239748 158937 -296987
832536705942016896 244648 239725 158895 -296989
832536705960229888 244695 239791 158956 -296926
832536705978443008 244651 239716 158899 -296982
832536705996656128 244588 239762 158904 -296976
832536706014869120 244644 239754 158963 -296969
832536706033082240 244654 239739 158935 -296944
832536706051295360 244644 239685 158906 -296973
832536706069508480 244652 239772 158989 -296962
832536706087721472 244672 239797 158963 -296930
832536706105934592 244681 239736 158958 -296918
832536706124147712 244642 239726 158923 -296979
832536706142360832 244671 239718 158914 -296967
832536706160573824 244668 239798 158952 -296970
832536706178786944 244645 239823 158985 -296897
832536706197000064 244682 239802 158954 -296936
832536706215213056 244694 239777 158921 -296945
832536706233426176 244712 239791 158972 -296983
832536706251639296 244670 239789 158983 -296963
832536706269852334 244660 239824 158932 -296945
832536706288066432 244691 239790 158924 -296918
832536706306280576 244735 239848 159002 -296959
832536706324494592 244671 239743 159006 -296996
832536706342708736 244676 239810 158992 -297001
832536706360922752 244731 239843 158982 -297004
832536706379136896 244724 239767 158978 -296956
832536706397350912 244695 239785 158924 -296967
832536706415565056 244647 239773 158928 -296995
832536706433779072 244672 239805 158925 -296960
832536706451993216 244633 239754 158923 -296978
832536706470207232 244625 239711 158880 -296952
832536706488421376 244598 239713 158907 -297038
832536706506635392 244724 239754 159016 -296988
832536706524849536 244727 239753 158971 -296967
832536706543063552 244699 239775 158937 -296959
832536706561277696 244670 239787 158946 -297015
832536706579491712 244668 239777 159000 -297014
832536706597705856 244657 239766 158895 -296954
832536706615919872 244637 239758 158927 -297000
832536706634134016 244643 239790 159011 -296988
832536706652348032 244615 239754 158939 -296959
832536706670562176 244634 239728 158918 -296953
832536706688776192 244640 239788 158924 -296967
832536706706990336 244691 239749 158972 -296962
832536706725204352 244674 239715 158927 -296929
832536706743418496 244668 239765 158939 -296945
832536706761632512 244687 239760 158962 -296910
832536706779846656 244630 239737 158954 -296958
832536706798060672 244679 239777 158973 -296988
832536706816274816 244670 239729 158926 -296926
832536706834488832 244597 239755 158947 -297007
832536706852702976 244645 239717 158930 -296979
832536706870916992 244659 239750 158903 -297015
832536706889131136 244693 239780 158913 -297004
832536706907345152 244680 239751 158943 -296972
832536706925559296 244715 239786 158930 -296981
832536706943773312 244667 239737 158947 -296950
832536706961987456 244656 239701 158907 -296979
832536706980201472 244663 239769 158963 -296943
832536706998415616 244632 239760 158938 -297000
832536707016629632 244672 239786 158962 -296947
832536707034843776 244667 239739 158964 -297004
832536707053057792 244695 239768 159020 -296965
832536707071271936 244710 239770 158982 -296967
832536707089486080 244657 239781 158958 -296963
832536707107700096 244684 239824 158915 -296970
832536707125914240 244689 239777 158949 -296985
832536707144128256 244693 239733 158961 -296968
832536707162342400 244690 239699 158977 -296973
832536707180556416 244623 239669 158889 -296964
832536707198770560 244647 239772 158954 -297022
832536707216984570 244637 239771 158959 -297031
832536707235198080 244640 239793 158925 -296959
832536707253411584 244631 239738 158894 -296959
832536707271624960 244591 239742 158956 -296964
832536707289838464 244642 239791 158916 -297006
832536707308051840 244631 239780 158960 -297003
832536707326265344 244684 239777 158968 -296975
832536707344478848 244689 239757 158949 -296941
832536707362692224 244686 239729 158978 -296907
832536707380905728 244686 239753 158976 -296938
832536707399119104 244657 239777 158942 -296969
832536707417332608 244712 239850 159001 -296931
832536707435546112 244683 239817 159006 -296932
832536707453759488 244718 239779 159009 -296936
832536707471972992 244689 239814 158974 -296961
832536707490186368 244673 239738 158968 -296941
832536707508399872 244732 239794 158893 -296928
832536707526613376 244683 239764 158941 -296971
832536707544826752 244674 239754 158917 -296979
832536707563040256 244647 239701 158926 -296988
832536707581253760 244668 239740 158948 -296975
832536707599467136 244730 239810 158975 -296993
832536707617680640 244710 239769 158946 -296965
832536707635894016 244656 239743 158945 -296969
832536707654107520 244679 239742 158966 -296966
832536707672321024 244626 239736 158960 -296979
832536707690534400 244693 239765 158977 -296943
832536707708747904 244628 239762 158932 -296989
832536707726961280 244679 239789 158928 -297005
832536707745174784 244664 239763 158916 -296927
832536707763388288 244653 239800 158938 -296934
832536707781601664 244626 239808 158906 -296952
832536707799815168 244654 239763 158947 -297012
832536707818028544 244591 239831 158989 -296961
832536707836242048 244676 239772 158923 -296981
832536707854455552 244632 239772 158890 -296965
832536707872668928 244715 239783 158925 -296922
832536707890882432 244630 239788 158941 -297048
832536707909095808 244694 239754 159007 -296975
832536707927309312 244695 239782 158989 -296981
832536707945522816 244703 239813 158981 -296968
832536707963736192 244694 239830 158985 -296973
832536707981949696 244696 239791 158982 -296926
832536708000163072 244705 239799 158998 -296978
832536708018376576 244670 239689 158938 -296976
832536708036590080 244704 239817 158920 -297022
832536708054803456 244695 239809 158929 -296948
832536708073016960 244672 239772 158917 -296989
832536708091230464 244700 239822 158960 -296944
832536708109443802 244697 239809 158926 -296975
832536708127657600 244664 239786 158941 -296952
832536708145871360 244684 239791 158957 -296970
832536708164085120 244631 239804 158951 -296944
832536708182298752 244669 239757 158924 -296945
832536708200512512 244779 239792 159015 -296938
832536708218726272 244674 239705 158901 -296992
832536708236940032 244649 239771 158962 -297011
832536708255153664 244647 239711 158912 -297019
832536708273367424 244706 239731 158917 -297009
832536708291581184 244662 239767 158935 -296950
832536708309794944 244676 239770 158928 -296964
832536708328008576 244683 239739 158920 -297067
832536708346222336 244710 239806 158950 -296970
832536708364436096 244723 239803 158982 -296967
832536708382649856 244698 239758 158957 -296986
832536708400863488 244687 239770 158946 -296955
832536708419077248 244724 239728 158914 -296973
832536708437291008 244690 239729 158907 -296972
832536708455504768 244720 239803 158967 -296966
832536708473718400 244653 239718 158920 -297003
832536708491932160 244635 239732 158944 -296984
832536708510145920 244618 239737 158917 -297004
832536708528359680 244655 239770 158958 -296959
832536708546573312 244647 239701 158963 -296988
832536708564787072 244634 239731 158952 -296976
832536708583000832 244681 239712 158910 -297013
832536708601214592 244662 239738 158908 -296998
832536708619428352 244656 239731 158937 -297032
832536708637641984 244665 239765 158954 -296956
832536708655855744 244717 239776 158901 -296947
832536708674069504 244768 239740 158968 -296927
832536708692283264 244697 239751 158967 -296971
832536708710496896 244698 239713 158941 -296965
832536708728710656 244678 239705 158901 -296954
832536708746924416 244682 239750 158935 -296967
832536708765138176 244640 239808 158949 -296938
832536708783351808 244646 239712 158929 -297000
832536708801565568 244649 239749 158917 -296985
832536708819779328 244673 239721 158915 -296977
832536708837993088 244705 239762 158937 -296936
832536708856206720 244667 239730 158904 -296976
832536708874420480 244674 239755 158921 -296947
832536708892634240 244682 239801 158946 -296936
832536708910848000 244718 239741 158941 -296943
832536708929061632 244671 239743 158950 -296952
832536708947275392 244669 239724 158903 -296986
832536708965489152 244625 239725 158908 -296968
832536708983702912 244676 239804 158948 -296967
832536709001916672 244678 239722 158957 -296963
832536709020130304 244666 239713 158940 -296998
832536709038344064 244651 239794 158932 -297033
832536709056557728 244687 239766 158950 -297012
