TIMESTAMP PPG0 PPG1 PPG2 AMBIENT
832781006604780928 296972 269661 292196 -218033
832781006622962688 297019 269614 292165 -218092
832781006641144576 297014 269601 292148 -218088
832781006659326336 297003 269596 292210 -218101
832781006677508224 297016 269651 292255 -218067
832781006695689984 297025 269650 292281 -218052
832781006713871872 297015 269680 292203 -218078
832781006732053632 297014 269644 292268 -218050
832781006750235520 297035 269708 292263 -218069
832781006768417280 297089 269679 292222 -218078
832781006786599168 297036 269633 292274 -218001
832781006804780928 297009 269641 292230 -218071
832781006822962688 297056 269721 292241 -218042
832781006841144576 297037 269734 292234 -218058
832781006859326336 297047 269691 292171 -218107
832781006877508224 297000 269664 292180 -218142
832781006895689984 297021 269664 292239 -218074
832781006913871872 297034 269650 292233 -218104
832781006932053632 296976 269627 292203 -218106
832781006950235520 297042 269625 292292 -218059
832781006968417280 297061 269693 292270 -218054
832781006986599168 297003 269624 292169 -218030
832781007004780928 297020 269627 292181 -218051
832781007022962688 297049 269639 292243 -218045
832781007041144576 297065 269640 292285 -218037
832781007059326336 297049 269663 292257 -218090
832781007077508224 297084 269687 292251 -218044
832781007095689984 297056 269677 292229 -218061
832781007113871872 297077 269666 292209 -218103
832781007132053632 297051 269731 292232 -218152
832781007150235520 297084 269621 292252 -218071
832781007168417280 297072 269658 292264 -218069
832781007186599168 297048 269692 292230 -218079
832781007204780928 297052 269680 292274 -218020
832781007222962688 297050 269697 292275 -217996
832781007241144576 297096 269698 292255 -218055
832781007259326336 297066 269646 292205 -218044
832781007277508224 297056 269652 292233 -218070
832781007295689984 297064 269636 292244 -218081
832781007313871872 297031 269666 292233 -218093
832781007332053632 297008 269728 292273 -218080
832781007350235520 297017 269627 292268 -218104
832781007368417280 297044 269640 292248 -218097
832781007386599168 297053 269673 292291 -218080
832781007404780928 297049 269635 292282 -218119
832781007422962688 297096 269630 292285 -218049
832781007441144576 297058 269643 292256 -218110
832781007459326336 297043 269588 292275 -218089
832781007477508224 297028 269623 292215 -218142
832781007495689984 297069 269674 292248 -218044
832781007513871872 297081 269695 292235 -218110
832781007532053588 297054 269633 292233 -218066
832781007550265472 297026 269625 292226 -218112
832781007568477312 297020 269616 292202 -218096
832781007586689280 297026 269704 292249 -218061
832781007604901120 297051 269689 292234 -218044
832781007623113088 297061 269652 292244 -218080
832781007641324928 297068 269621 292209 -218100
832781007659536896 297061 269686 292272 -218095
832781007677748736 297107 269702 292328 -218071
832781007695960704 297032 269641 292273 -218116
832781007714172544 297031 269627 292244 -218096
832781007732384512 297016 269630 292233 -218132
832781007750596352 297032 269677 292271 -218093
832781007768808320 296975 269658 292196 -218123
832781007787020160 296996 269627 292238 -218110
832781007805232128 297079 269634 292273 -218105
832781007823443968 297041 269653 292258 -218076
832781007841655936 297035 269649 292237 -218073
832781007859867776 297083 269665 292224 -218090
832781007878079616 297026 269663 292223 -218044
832781007896291584 297046 269597 292273 -218070
832781007914503424 296984 269628 292259 -218074
832781007932715392 297077 269596 292200 -218037
832781007950927232 297020 269576 292159 -218076
832781007969139200 297058 269602 292204 -218088
832781007987351040 296983 269592 292250 -218114
832781008005563008 297024 269640 292260 -218097
832781008023774848 296978 269627 292230 -218117
832781008041986816 296991 269613 292224 -218080
832781008060198656 297011 269655 292225 -218079
832781008078410624 296991 269662 292227 -218098
832781008096622464 297031 269676 292237 -218140
832781008114834432 297031 269642 292217 -218091
832781008133046272 297013 269644 292222 -218134
832781008151258240 297104 269727 292257 -218095
832781008169470080 297064 269585 292171 -218090
832781008187681920 297049 269597 292191 -218072
832781008205893888 297039 269612 292227 -218119
832781008224105728 297061 269663 292222 -218095
832781008242317696 302634 275264 292227 -218090
832781008260529536 305098 277738 292229 -218126
832781008278741504 306249 278793 292258 -218041
832781008296953344 306754 279316 292250 -218057
832781008315165302 306870 279447 292255 -218127
832781008333378304 306984 279600 292298 -218032
832781008351591296 307063 279694 292222 -218083
832781008369804288 307078 279641 292251 -218048
832781008388017152 307112 279673 292266 -218104
832781008406230144 307247 279778 292304 -218083
832781008424443136 307370 279888 292319 -218035
832781008442656128 307402 279958 292287 -218119
832781008460868992 307616 280155 292244 -218067
832781008479081984 307747 280304 292304 -218078
832781008497294976 308088 280627 292312 -218081
832781008515507968 308105 280681 292261 -218141
832781008533720832 308314 280801 292265 -218084
832781008551933824 308461 280971 292272 -218041
832781008570146816 308599 281196 292230 -218086
832781008588359808 308742 281273 292247 -218065
832781008606572672 308902 281438 292278 -218073
832781008624785664 308976 281501 292234 -218063
832781008642998656 308948 281469 292243 -218107
832781008661211648 308857 281383 292265 -218117
832781008679424512 308747 281324 292256 -218102
832781008697637504 308530 281152 292252 -218087
832781008715850496 308268 280901 292294 -218139
832781008734063488 308017 280638 292239 -218098
832781008752276352 307695 280300 292206 -218149
832781008770489344 307481 280052 292226 -218020
832781008788702336 307166 279774 292259 -218055
832781008806915328 306893 279418 292234 -218093
832781008825128192 306535 279121 292256 -218083
832781008843341184 306235 278856 292278 -218091
832781008861554176 305935 278637 292247 -218083
832781008879767168 305779 278394 292280 -218113
832781008897980032 305649 278158 292270 -218082
832781008916193024 305467 278023 292251 -218078
832781008934406016 305308 277927 292253 -218141
832781008952619008 305261 277831 292221 -218124
832781008970831872 305255 277931 292268 -218062
832781008989044864 305255 277849 292213 -218097
832781009007257856 305352 277949 292222 -218121
832781009025470848 305420 278053 292215 -218136
832781009043683712 305619 278211 292221 -218102
832781009061896704 305782 278354 292258 -218093
832781009080109654 305892 278502 292181 -218141
832781009098319360 306084 278655 292247 -218100
832781009116529024 306313 278840 292300 -218112
832781009134738560 306449 278980 292229 -218082
832781009152948224 306593 279170 292299 -218025
832781009171157888 306706 279244 292238 -218099
832781009189367424 306795 279370 292301 -218097
832781009207577088 306952 279434 292250 -218088
832781009225786624 306981 279502 292285 -218055
832781009243996288 307083 279572 292280 -218067
832781009262205952 307042 279574 292253 -218109
832781009280415488 307126 279635 292231 -218061
832781009298625152 307068 279598 292222 -218086
832781009316834816 307040 279634 292190 -218092
832781009335044352 307075 279594 292248 -218062
832781009353254016 307056 279570 292227 -218131
832781009371463680 307155 279661 292265 -218127
832781009389673216 307149 279713 292277 -218116
832781009407882880 307282 279822 292300 -218059
832781009426092544 307348 279915 292308 -218007
832781009444302080 307434 280004 292258 -218033
832781009462511744 307555 280178 292356 -218117
832781009480721280 307735 280308 292322 -218079
832781009498930944 307927 280530 292304 -218027
832781009517140608 308203 280838 292301 -218084
832781009535350144 308361 280924 292275 -218039
832781009553559808 308463 281021 292260 -218054
832781009571769472 308709 281193 292304 -218022
832781009589979008 308797 281321 292268 -218097
832781009608188672 308826 281452 292250 -218063
832781009626398336 308974 281501 292304 -218083
832781009644607872 308916 281459 292259 -218103
832781009662817536 308899 281437 292299 -218074
832781009681027200 308755 281318 292321 -218046
832781009699236736 308564 281132 292287 -218071
832781009717446400 308315 280912 292287 -218119
832781009735655936 308054 280658 292216 -218142
832781009753865600 307795 280399 292303 -218049
832781009772075264 307410 280043 292283 -218123
832781009790284800 307120 279735 292325 -218100
832781009808494464 306880 279418 292299 -218034
832781009826704128 306553 279160 292291 -218059
832781009844913616 306279 278903 292328 -218047
832781009863126016 306015 278570 292267 -217997
832781009881338368 305739 278378 292266 -218046
832781009899550592 305579 278172 292321 -218073
832781009917762944 305406 277958 292237 -218085
832781009935975296 305387 277984 292311 -218037
832781009954187520 305307 277866 292209 -218120
832781009972399872 305287 277838 292243 -218102
832781009990612224 305344 277867 292248 -218126
832781010008824448 305461 277955 292266 -218147
832781010027036800 305500 278076 292239 -218130
832781010045249024 305619 278253 292266 -218124
832781010063461376 305766 278382 292231 -218132
832781010081673728 305918 278524 292291 -218102
832781010099885952 306122 278651 292239 -218100
832781010118098304 306329 278869 292319 -218075
832781010136310656 306482 279032 292323 -218080
832781010154522880 306671 279176 292255 -218081
832781010172735232 306733 279302 292219 -218107
832781010190947584 306895 279447 292266 -218050
832781010209159808 306945 279503 292232 -218100
832781010227372160 307011 279580 292282 -218057
832781010245584512 306997 279598 292231 -218123
832781010263796736 307015 279616 292277 -218133
832781010282009088 307075 279622 292236 -218104
832781010300221440 307044 279742 292250 -218076
832781010318433664 307046 279686 292217 -218055
832781010336646016 307030 279667 292272 -218100
832781010354858368 307067 279678 292233 -218048
832781010373070592 307174 279739 292302 -218042
832781010391282944 307187 279795 292263 -218039
832781010409495168 307333 279851 292276 -218055
832781010427707520 307359 279927 292246 -218076
832781010445919872 307415 280057 292224 -218073
832781010464132096 307563 280187 292215 -218114
832781010482344448 307782 280339 292303 -218091
832781010500556800 307888 280513 292261 -218100
832781010518769024 308152 280773 292282 -218059
832781010536981376 308290 280879 292208 -218062
832781010555193728 308504 281076 292328 -218067
832781010573405952 308566 281183 292210 -218055
832781010591618304 308788 281368 292298 -218081
832781010609830514 308840 281477 292319 -218038
832781010628044160 308937 281593 292260 -218083
832781010646257792 308923 281521 292257 -218066
832781010664471424 308844 281421 292234 -218061
832781010682685056 308703 281324 292232 -218086
832781010700898816 308560 281123 292230 -218057
832781010719112448 308314 280876 292265 -218116
832781010737326080 307986 280634 292213 -218161
832781010755539712 307735 280299 292156 -218106
832781010773753344 307422 279981 292201 -218082
832781010791966976 307107 279697 292229 -218085
832781010810180608 306818 279427 292260 -218045
832781010828394368 306527 279108 292263 -218081
832781010846608000 306231 278816 292252 -218106
832781010864821632 305965 278545 292238 -218095
832781010883035264 305775 278380 292232 -218098
832781010901248896 305531 278141 292303 -218102
832781010919462528 305425 278024 292281 -218113
832781010937676288 305372 277915 292283 -218120
832781010955889920 305274 277831 292223 -218106
832781010974103552 305394 277883 292318 -218079
832781010992317184 305457 278029 292277 -218080
832781011010530816 305428 278011 292271 -218104
832781011028744448 305516 278091 292202 -218120
832781011046958080 305674 278230 292233 -218099
832781011065171840 305828 278310 292253 -218056
832781011083385472 306043 278576 292271 -218024
832781011101599104 306163 278743 292259 -218054
832781011119812736 306338 278909 292210 -218122
832781011138026368 306434 279020 292220 -218148
832781011156240000 306591 279190 292281 -218101
832781011174453632 306682 279317 292273 -218079
832781011192667392 306764 279400 292253 -218090
832781011210881024 306977 279529 292267 -218093
832781011229094656 307042 279589 292259 -218086
832781011247308288 307094 279639 292303 -218076
832781011265521920 307102 279614 292293 -218107
832781011283735552 307103 279661 292288 -218044
832781011301949184 307099 279658 292271 -218055
832781011320162944 307098 279683 292277 -218090
832781011338376576 307113 279676 292241 -218075
832781011356590208 307161 279679 292303 -218096
832781011374803856 307136 279695 292240 -218106
832781011393016448 307227 279780 292275 -218057
832781011411229056 307300 279818 292281 -218102
832781011429441664 307373 279972 292283 -218065
832781011447654400 307481 280066 292326 -218105
832781011465867008 307596 280150 292299 -218064
832781011484079616 307761 280328 292238 -218051
832781011502292224 308119 280623 292252 -218107
832781011520504832 308225 280747 292221 -218113
832781011538717568 308434 280928 292286 -218057
832781011556930176 308541 281059 292340 -218097
832781011575142784 308675 281247 292212 -218086
832781011593355392 308823 281362 292259 -218051
832781011611568000 308925 281417 292282 -218097
832781011629780736 308980 281544 292317 -218036
832781011647993344 309015 281552 292319 -218079
832781011666205952 308887 281407 292355 -218087
832781011684418560 308772 281295 292327 -218048
832781011702631168 308617 281114 292295 -218027
832781011720843904 308375 280870 292328 -218003
832781011739056512 308059 280611 292286 -218037
832781011757269120 307765 280304 292291 -218100
832781011775481728 307406 280008 292232 -218100
832781011793694336 307116 279690 292280 -218053
832781011811907072 306805 279451 292297 -218050
832781011830119680 306517 279100 292241 -218032
832781011848332288 306180 278768 292199 -218066
832781011866544896 305992 278489 292235 -218045
832781011884757504 305765 278318 292221 -218054
832781011902970240 305566 278157 292263 -218036
832781011921182848 305455 278022 292292 -218028
832781011939395456 305369 277968 292307 -218019
832781011957608064 305270 277879 292286 -218068
832781011975820672 305269 277873 292230 -218100
832781011994033408 305397 277898 292259 -218080
832781012012246016 305531 278069 292291 -218022
832781012030458624 305629 278143 292284 -218078
832781012048671232 305711 278262 292268 -218081
832781012066883840 305845 278394 292316 -218088
832781012085096576 306010 278594 292309 -218065
832781012103309184 306175 278717 292250 -218073
832781012121521792 306369 278883 292281 -218090
832781012139734474 306515 278968 292184 -218115
832781012157947392 306695 279176 292216 -218076
832781012176160256 306756 279331 292236 -218116
832781012194373120 306846 279435 292249 -218106
832781012212586112 307009 279479 292265 -218080
832781012230798976 306967 279507 292267 -218113
832781012249011840 307051 279669 292295 -218093
832781012267224704 307091 279625 292254 -218073
832781012285437568 307088 279684 292268 -218047
832781012303650560 307135 279660 292238 -218093
832781012321863424 307052 279644 292244 -218067
832781012340076288 307048 279628 292238 -218144
832781012358289152 307027 279663 292247 -218123
832781012376502016 307139 279726 292208 -218101
832781012394714880 307191 279779 292281 -218150
832781012412927872 307303 279835 292291 -218118
832781012431140736 307395 279979 292249 -218110
832781012449353600 307517 280054 292253 -218134
832781012467566464 307610 280167 292218 -218087
832781012485779328 307797 280323 292185 -218092
832781012503992320 307996 280467 292210 -218087
832781012522205184 308145 280670 292271 -218081
832781012540418048 308394 280884 292297 -218085
832781012558630912 308532 281100 292251 -218054
832781012576843776 308694 281273 292263 -218057
832781012595056768 308821 281400 292260 -218064
832781012613269632 308882 281408 292247 -218056
832781012631482496 308993 281527 292268 -218023
832781012649695360 309011 281478 292287 -218061
832781012667908224 308846 281366 292252 -218048
832781012686121088 308713 281244 292270 -218057
832781012704334080 308507 281073 292198 -218053
832781012722546944 308336 280871 292316 -218065
832781012740759808 308013 280555 292263 -218098
832781012758972672 307709 280253 292221 -218115
832781012777185536 307429 279958 292289 -218090
832781012795398528 307064 279578 292217 -218086
832781012813611392 306760 279331 292226 -218137
832781012831824256 306420 279011 292243 -218083
832781012850037120 306128 278724 292251 -218135
832781012868249984 305911 278472 292248 -218127
832781012886462976 305686 278270 292209 -218102
832781012904675772 305546 278116 292213 -218115
832781012922888064 305385 278036 292273 -218106
832781012941100416 305356 277945 292264 -218039
832781012959312768 305282 277852 292237 -218098
832781012977525120 305283 277868 292225 -218101
832781012995737472 305299 277903 292213 -218101
832781013013949824 305407 278001 292252 -218059
832781013032162176 305561 278091 292259 -218088
832781013050374528 305644 278250 292200 -218125
832781013068586752 305834 278388 292238 -218051
832781013086799104 305966 278522 292226 -218123
832781013105011456 306183 278760 292260 -218057
832781013123223808 306393 278927 292208 -218062
832781013141436160 306462 279054 292192 -218100
832781013159648512 306654 279216 292235 -218051
832781013177860864 306808 279335 292261 -218065
832781013196073216 306904 279444 292273 -218086
832781013214285568 306986 279543 292286 -218064
832781013232497920 307020 279574 292284 -218074
832781013250710272 307050 279640 292277 -218042
832781013268922624 307065 279604 292224 -218044
832781013287134976 307104 279632 292240 -218057
832781013305347328 307079 279560 292258 -218099
832781013323559552 307104 279645 292257 -218045
832781013341771904 307128 279674 292324 -218028
832781013359984256 307059 279624 292258 -218076
832781013378196608 307198 279711 292292 -218066
832781013396408960 307233 279758 292285 -218033
832781013414621312 307258 279827 292196 -218087
832781013432833664 307395 279939 292171 -218154
832781013451046016 307563 280017 292219 -218135
832781013469258368 307658 280129 292235 -218125
832781013487470720 307839 280459 292247 -218079
832781013505683072 308094 280600 292352 -218076
832781013523895424 308258 280718 292274 -218096
832781013542107776 308465 280968 292357 -218092
832781013560320128 308563 281122 292263 -218076
832781013578532352 308730 281281 292300 -218059
832781013596744704 308786 281451 292323 -218067
832781013614957056 308989 281523 292351 -218040
832781013633169408 308948 281498 292307 -218052
832781013651381760 308964 281474 292316 -218058
832781013669594182 308826 281287 292268 -218054
832781013687806592 308692 281186 292269 -218064
832781013706018944 308501 281123 292310 -218036
832781013724231296 308264 280767 292249 -218093
832781013742443648 307992 280561 292252 -218096
832781013760656000 307723 280263 292305 -218083
832781013778868352 307370 279929 292316 -218082
832781013797080704 307062 279680 292251 -218075
832781013815293056 306723 279302 292216 -218066
832781013833505536 306476 279001 292223 -218048
832781013851717888 306169 278709 292233 -218078
832781013869930240 305985 278482 292204 -218022
832781013888142592 305786 278324 292308 -218030
832781013906354944 305524 278106 292290 -218036
832781013924567296 305422 277982 292300 -218029
832781013942779648 305343 277958 292355 -218047
832781013960992000 305261 277862 292275 -218076
832781013979204352 305294 277851 292273 -218038
832781013997416704 305427 278020 292243 -218095
832781014015629056 305518 278062 292251 -218089
832781014033841408 305657 278143 292290 -218083
832781014052053760 305766 278248 292284 -218062
832781014070266112 305888 278454 292273 -218087
832781014088478592 306002 278587 292264 -218037
832781014106690944 306248 278777 292286 -218097
832781014124903296 306381 278892 292217 -218084
832781014143115648 306574 279125 292253 -218055
832781014161328000 306650 279225 292185 -218125
832781014179540352 306834 279357 292255 -218040
832781014197752704 306887 279472 292320 -218097
832781014215965056 306950 279537 292274 -218070
832781014234177408 307096 279643 292288 -218052
832781014252389760 307108 279657 292322 -218038
832781014270602112 307111 279724 292312 -218032
832781014288814464 307134 279737 292327 -218090
832781014307026816 307143 279645 292293 -218082
832781014325239168 307115 279662 292227 -218082
832781014343451520 307122 279658 292213 -218114
832781014361664000 307137 279666 292291 -218062
832781014379876352 307163 279766 292237 -218050
832781014398088704 307248 279796 292258 -218050
832781014416300976 307327 279870 292280 -218048
832781014434513280 307410 279998 292268 -218051
832781014452725632 307556 280101 292268 -218083
832781014470937984 307719 280299 292264 -218059
832781014489150336 307834 280456 292340 -218080
832781014507362688 308059 280575 292294 -218092
832781014525575040 308204 280748 292240 -218069
832781014543787392 308355 280900 292240 -218089
832781014561999744 308550 281102 292219 -218086
832781014580211968 308716 281287 292274 -218076
832781014598424320 308792 281365 292247 -218084
832781014616636672 308972 281500 292276 -218106
832781014634849024 308928 281528 292243 -218068
832781014653061376 308874 281497 292213 -218074
832781014671273728 308831 281392 292264 -218072
832781014689486080 308698 281143 292258 -218067
832781014707698432 308441 281010 292280 -218096
832781014725910784 308217 280827 292208 -218053
832781014744123136 307997 280525 292291 -218084
832781014762335488 307623 280204 292259 -218110
832781014780547840 307387 279958 292273 -218015
832781014798760192 306993 279607 292315 -218055
832781014816972544 306738 279296 292284 -218053
832781014835184768 306428 278956 292269 -218080
832781014853397120 306201 278712 292216 -218053
832781014871609472 305922 278496 292280 -218055
832781014889821824 305728 278275 292318 -218039
832781014908034176 305590 278156 292292 -218016
832781014926246528 305421 277963 292281 -218037
832781014944458880 305348 277900 292282 -218055
832781014962671232 305337 277862 292251 -218064
832781014980883584 305353 277939 292303 -218045
832781014999095936 305428 277922 292239 -218062
832781015017308288 305516 278020 292316 -218046
832781015035520640 305679 278140 292289 -218038
832781015053732992 305763 278253 292324 -218088
832781015071945344 305947 278454 292258 -218036
832781015090157568 306078 278610 292308 -218062
832781015108369920 306239 278790 292293 -218057
832781015126582272 306457 278972 292342 -218016
832781015144794624 306582 279153 292291 -218052
832781015163006976 306784 279259 292274 -217990
832781015181219386 306897 279404 292280 -217998
832781015199431680 306985 279501 292292 -218003
832781015217644032 307034 279545 292255 -218013
832781015235856384 307100 279641 292295 -218037
832781015254068736 307120 279595 292264 -218089
832781015272281088 307139 279663 292281 -218074
832781015290493440 307194 279689 292390 -218021
832781015308705792 307098 279634 292261 -218055
832781015326918144 307076 279642 292248 -218063
832781015345130368 307149 279712 292304 -218025
832781015363342720 307153 279665 292273 -218046
832781015381555072 307210 279762 292302 -218037
832781015399767424 307302 279817 292309 -218020
832781015417979776 307314 279883 292307 -218054
832781015436192128 307509 280035 292350 -218033
832781015454404480 307589 280116 292362 -218049
832781015472616832 307812 280327 292353 -218036
832781015490829184 307933 280459 292320 -218037
832781015509041536 308133 280617 292332 -218042
832781015527253888 308242 280756 292266 -218056
832781015545466240 308498 281006 292334 -218031
832781015563678592 308610 281132 292260 -218118
832781015581890944 308768 281306 292260 -218047
832781015600103168 308897 281434 292326 -217995
832781015618315520 308939 281494 292290 -218015
832781015636527872 308993 281500 292263 -218063
832781015654740224 308897 281504 292246 -218070
832781015672952576 308808 281424 292234 -218036
832781015691164928 308697 281310 292341 -218016
832781015709377280 308476 281023 292299 -218037
832781015727589632 308234 280754 292328 -218048
832781015745801984 307909 280492 292253 -218070
832781015764014336 307646 280159 292270 -218078
832781015782226688 307314 279834 292316 -218031
832781015800439040 306978 279508 292268 -218088
832781015818651392 306743 279228 292227 -218056
832781015836863744 306402 278920 292221 -218105
832781015855075968 306153 278727 292276 -218071
832781015873288320 305915 278436 292342 -218051
832781015891500672 305659 278303 292275 -218082
832781015909713024 305560 278113 292282 -218063
832781015927925376 305350 277967 292243 -218055
832781015946137796 305339 277963 292281 -218069
832781015964350208 305384 277950 292327 -218064
832781015982562560 305455 278045 292268 -218048
832781016000774912 305509 278025 292324 -217979
832781016018987264 305504 278077 292288 -218045
832781016037199616 305621 278150 292284 -218050
832781016055411968 305740 278280 292268 -218083
832781016073624320 305932 278457 292309 -218074
832781016091836672 306067 278588 292270 -218064
832781016110048896 306257 278753 292281 -218037
832781016128261248 306453 279013 292270 -218015
832781016146473600 306574 279096 292236 -218068
832781016164685952 306741 279231 292242 -218086
832781016182898304 306839 279392 292234 -218106
832781016201110656 306906 279512 292251 -218105
832781016219323008 307018 279538 292277 -218079
832781016237535360 307094 279565 292233 -218086
832781016255747712 307076 279599 292229 -218130
832781016273960064 307188 279659 292247 -218025
832781016292172416 307121 279624 292276 -218104
832781016310384768 307081 279647 292294 -218096
832781016328597120 307102 279669 292249 -218130
832781016346809472 307145 279728 292350 -218055
832781016365021696 307110 279689 292286 -218127
832781016383234048 307213 279767 292290 -218105
832781016401446400 307236 279767 292234 -218105
832781016419658752 307368 279893 292316 -218070
832781016437871104 307468 280002 292292 -218052
832781016456083456 307556 280152 292293 -218089
832781016474295808 307707 280328 292324 -218092
832781016492508160 308050 280592 292354 -218063
832781016510720512 308182 280696 292328 -218044
832781016528932864 308266 280835 292290 -218092
832781016547145216 308413 281026 292294 -218112
832781016565357568 308533 281130 292252 -218113
832781016583569920 308678 281319 292251 -218081
832781016601782272 308867 281433 292201 -218089
832781016619994496 308922 281505 292195 -218092
832781016638206848 309049 281550 292272 -218085
832781016656419200 308944 281459 292299 -218113
832781016674631552 308836 281395 292327 -218112
832781016692843904 308619 281176 292295 -218044
832781016711056206 308389 281045 292289 -218102
832781016729268608 308138 280775 292282 -218063
832781016747480960 307859 280497 292269 -218078
832781016765693312 307535 280192 292293 -218075
832781016783905664 307262 279864 292268 -218105
832781016802118016 306948 279536 292276 -218052
832781016820330368 306641 279227 292271 -218103
832781016838542720 306389 278937 292265 -218051
832781016856755072 306108 278620 292266 -218153
832781016874967296 305871 278450 292265 -218107
832781016893179648 305661 278233 292226 -218093
832781016911392000 305469 278011 292203 -218092
832781016929604352 305394 277972 292265 -218078
832781016947816704 305353 277851 292252 -218091
832781016966029056 305283 277894 292298 -218061
832781016984241408 305354 277901 292263 -218121
832781017002453760 305505 278090 292273 -218100
832781017020666112 305568 278140 292272 -218049
832781017038878464 305641 278193 292272 -218057
832781017057090816 305794 278374 292277 -218014
832781017075303168 305953 278505 292253 -218067
832781017093515520 306127 278691 292293 -218045
832781017111727872 306358 278884 292223 -218073
832781017129940096 306449 278978 292249 -218036
832781017148152448 306591 279152 292256 -218064
832781017166364800 306738 279232 292321 -218050
832781017184577152 306870 279384 292257 -218112
832781017202789504 306956 279490 292273 -218082
832781017221001856 307071 279576 292283 -218073
832781017239214208 307075 279608 292320 -218018
832781017257426560 307090 279616 292254 -218057
832781017275638912 307138 279691 292303 -218049
832781017293851264 307107 279706 292333 -218049
832781017312063616 307154 279706 292312 -218093
832781017330275968 307144 279722 292249 -218103
832781017348488320 307161 279711 292320 -218070
832781017366700672 307163 279741 292310 -218103
832781017384912896 307264 279720 292242 -218069
832781017403125248 307295 279784 292289 -218033
832781017421337600 307341 279868 292298 -218072
832781017439549952 307485 279978 292305 -218089
832781017457762304 307626 280127 292224 -218149
832781017475974616 307786 280315 292244 -218073
832781017494187776 307944 280449 292273 -218049
832781017512400896 308100 280635 292250 -218057
832781017530613888 308260 280766 292206 -218155
832781017548827008 308494 281009 292273 -218046
832781017567040000 308611 281169 292260 -218073
832781017585253120 308807 281296 292239 -218032
832781017603466240 308885 281426 292248 -218070
832781017621679232 308994 281523 292295 -218086
832781017639892352 308997 281551 292327 -218127
832781017658105344 308965 281468 292277 -218114
832781017676318464 308874 281341 292307 -218097
832781017694531584 308697 281164 292299 -218076
832781017712744576 308376 280940 292266 -218113
832781017730957696 308202 280755 292291 -218082
832781017749170816 307859 280429 292236 -218081
832781017767383808 307569 280143 292272 -218106
832781017785596928 307208 279842 292256 -218108
832781017803809920 306943 279480 292225 -218089
832781017822023040 306635 279204 292283 -218078
832781017840236160 306326 278931 292292 -218057
832781017858449152 306075 278670 292307 -218095
832781017876662272 305851 278408 292328 -218040
832781017894875264 305670 278240 292295 -218047
832781017913088384 305512 278087 292264 -218013
832781017931301504 305407 278013 292311 -218021
832781017949514496 305322 277937 292267 -218061
832781017967727616 305356 277896 292317 -218099
832781017985940608 305348 277909 292338 -218104
832781018004153728 305389 278004 292335 -218105
832781018022366848 305496 278082 292334 -218086
832781018040579840 305589 278182 292268 -218089
832781018058792960 305806 278379 292321 -218087
832781018077005952 305973 278473 292278 -218069
832781018095219072 306078 278673 292243 -218124
832781018113432192 306329 278872 292243 -218085
832781018131645184 306467 279046 292221 -218101
832781018149858304 306627 279222 292261 -218068
832781018168071424 306717 279291 292258 -218106
832781018186284416 306862 279451 292229 -218082
832781018204497536 306976 279527 292289 -218068
832781018222710528 307043 279635 292306 -218076
832781018240923554 307095 279707 292282 -218039
832781018259136640 307145 279679 292248 -218049
832781018277349760 307139 279666 292257 -218039
832781018295562880 307184 279754 292283 -218083
832781018313776128 307208 279725 292323 -218054
832781018331989248 307157 279768 292273 -218034
832781018350202368 307156 279720 292283 -218049
832781018368415488 307155 279728 292249 -218138
832781018386628608 307219 279768 292257 -218075
832781018404841728 307274 279837 292311 -218132
832781018423054976 307363 279957 292306 -218091
832781018441268096 307549 280041 292280 -218134
832781018459481216 307612 280171 292323 -218134
832781018477694336 307946 280431 292299 -218070
832781018495907456 308018 280479 292246 -218053
832781018514120576 308210 280704 292284 -218044
832781018532333824 308334 280849 292270 -218068
832781018550546944 308467 281004 292253 -218107
832781018568760064 308670 281199 292295 -218030
832781018586973184 308817 281395 292351 -218051
832781018605186304 308886 281470 292265 -218039
832781018623399424 309044 281529 292344 -218011
832781018641612672 308979 281520 292351 -218075
832781018659825792 308892 281398 292319 -218112
832781018678038912 308816 281326 292345 -218104
832781018696252032 308621 281169 292278 -218055
832781018714465152 308398 280936 292306 -218057
832781018732678400 308118 280670 292319 -218014
832781018750891520 307839 280413 292263 -218057
832781018769104640 307623 280120 292281 -218051
832781018787317760 307225 279831 292220 -218047
832781018805530880 306957 279591 292289 -218062
832781018823744000 306618 279167 292249 -218106
832781018841957248 306317 278869 292283 -218109
832781018860170368 306104 278660 292288 -218096
832781018878383488 305877 278394 292278 -218071
832781018896596608 305665 278213 292373 -218069
832781018914809728 305524 278095 292350 -218047
832781018933022848 305415 277967 292327 -218045
832781018951236096 305388 277936 292337 -217991
832781018969449216 305359 277890 292334 -218042
832781018987662336 305525 278026 292307 -218062
832781019005875534 305541 278068 292314 -218045
832781019024088576 305532 278122 292304 -218049
832781019042301568 305670 278218 292318 -218065
832781019060514560 305858 278349 292340 -218041
832781019078727552 305987 278530 292257 -218081
832781019096940544 306186 278687 292322 -218078
832781019115153536 306368 278904 292315 -218028
832781019133366528 306503 279052 292309 -218057
832781019151579520 306620 279182 292273 -218066
832781019169792512 306808 279403 292335 -218045
832781019188005504 306928 279449 292336 -218118
832781019206218496 307024 279538 292351 -218051
832781019224431488 307063 279612 292337 -218027
832781019242644480 307094 279669 292357 -218090
832781019260857600 307166 279599 292328 -218013
832781019279070592 307190 279649 292240 -218093
832781019297283584 307180 279712 292297 -218024
832781019315496576 307140 279692 292250 -218081
832781019333709568 307173 279727 292257 -218049
832781019351922560 307164 279702 292292 -218062
832781019370135552 307219 279796 292286 -218078
832781019388348544 307284 279771 292243 -218024
832781019406561536 307313 279898 292278 -218036
832781019424774528 307351 279954 292270 -218046
832781019442987520 307547 280040 292232 -218113
832781019461200512 307617 280181 292288 -218101
832781019479413504 307762 280336 292149 -218130
832781019497626496 308069 280624 292233 -218069
832781019515839488 308202 280750 292304 -218061
832781019534052480 308338 280850 292220 -218092
832781019552265472 308542 281097 292292 -218042
832781019570478464 308699 281295 292307 -218035
832781019588691456 308877 281384 292288 -218074
832781019606904448 308971 281485 292268 -218085
832781019625117440 308962 281575 292326 -218079
832781019643330432 308986 281597 292247 -218092
832781019661543424 308877 281484 292316 -218124
832781019679756416 308812 281370 292251 -218039
832781019697969408 308565 281134 292225 -218122
832781019716182400 308367 280936 292250 -218187
832781019734395520 308066 280655 292225 -218127
832781019752608512 307809 280384 292231 -218068
832781019770821410 307515 280098 292213 -218065
832781019789034112 307205 279736 292242 -218099
832781019807246848 306904 279417 292230 -218054
832781019825459712 306588 279152 292256 -218059
832781019843672448 306298 278869 292237 -218081
832781019861885184 306067 278553 292295 -218108
832781019880098048 305752 278295 292299 -218126
832781019898310784 305606 278142 292303 -218092
832781019916523520 305489 278048 292344 -218046
832781019934736384 305391 277891 292312 -218093
832781019952949120 305320 277851 292283 -218118
832781019971161856 305373 277864 292354 -218073
832781019989374720 305352 277898 292267 -218036
832781020007587456 305578 278091 292378 -218027
832781020025800192 305626 278135 292288 -218036
832781020044013056 305773 278238 292231 -218036
832781020062225792 305833 278354 292204 -218061
832781020080438528 306005 278514 292257 -218064
832781020098651392 306264 278730 292294 -218007
832781020116864128 306351 278947 292278 -218036
832781020135076864 306534 279049 292265 -218083
832781020153289728 306674 279258 292314 -218038
832781020171502464 306798 279386 292356 -218081
832781020189715200 306898 279407 292266 -218127
832781020207928064 307018 279525 292308 -218089
832781020226140800 307018 279590 292309 -218075
832781020244353536 307126 279600 292297 -218046
832781020262566400 307177 279675 292269 -218116
832781020280779136 307191 279705 292354 -218035
832781020298991872 307172 279724 292297 -218020
832781020317204736 307176 279710 292355 -218040
832781020335417472 307134 279654 292301 -218074
832781020353630208 307188 279683 292266 -218063
832781020371843072 307194 279735 292267 -218062
832781020390055808 307200 279832 292321 -218102
832781020408268544 307334 279861 292256 -218008
832781020426481408 307467 279958 292265 -218001
832781020444694144 307500 280057 292290 -218081
832781020462906880 307621 280172 292266 -218095
832781020481119744 307847 280420 292362 -218061
832781020499332480 308015 280558 292327 -218079
832781020517545216 308139 280652 292297 -218090
832781020535758132 308384 280875 292261 -218103
832781020553971712 308474 280986 292199 -218177
832781020572185344 308615 281162 292339 -218147
832781020590398976 308869 281365 292277 -218074
832781020608612608 308913 281443 292230 -218102
832781020626826368 308979 281567 292217 -218066
832781020645040000 308998 281533 292241 -218065
832781020663253632 308939 281425 292272 -218088
832781020681467264 308829 281337 292281 -218068
832781020699680896 308666 281134 292277 -218073
832781020717894528 308455 280868 292373 -218075
832781020736108160 308112 280634 292280 -218123
832781020754321920 307886 280331 292237 -218164
832781020772535552 307546 280017 292285 -218092
832781020790749184 307223 279739 292281 -218090
832781020808962816 306864 279474 292272 -218074
832781020827176448 306616 279142 292261 -218029
832781020845390080 306311 278812 292309 -218105
832781020863603840 306079 278586 292346 -218072
832781020881817472 305824 278347 292291 -218049
832781020900031104 305627 278174 292339 -218065
832781020918244736 305530 277984 292326 -218105
832781020936458368 305393 277914 292257 -218086
832781020954672000 305325 277875 292283 -218122
832781020972885632 305476 277970 292329 -218067
832781020991099392 305464 277993 292376 -218058
832781021009313024 305512 277931 292312 -218061
832781021027526656 305574 278143 292342 -218065
832781021045740288 305721 278257 292247 -218122
832781021063953920 305851 278392 292221 -218124
832781021082167552 306020 278559 292287 -218080
832781021100381184 306195 278711 292266 -218044
832781021118594944 306314 278899 292292 -218067
832781021136808576 306495 279046 292304 -218091
832781021155022208 306717 279230 292327 -218051
832781021173235840 306802 279325 292269 -218110
832781021191449472 306934 279456 292290 -218085
832781021209663104 307025 279526 292258 -218055
832781021227876736 307092 279625 292328 -218086
832781021246090496 307068 279673 292254 -218097
832781021264304128 307119 279680 292250 -218081
832781021282517760 307125 279672 292264 -218066
832781021300731474 307156 279725 292288 -218091
832781021318945408 307117 279733 292225 -218072
832781021337159296 307100 279667 292206 -218107
832781021355373184 307160 279741 292266 -218050
832781021373587072 307228 279763 292240 -218081
832781021391800832 307241 279803 292265 -218085
832781021410014720 307312 279917 292315 -218047
832781021428228608 307461 279984 292319 -218080
832781021446442496 307529 280105 292251 -218063
832781021464656384 307629 280222 292256 -218100
832781021482870272 307824 280431 292334 -218112
832781021501084160 308003 280575 292283 -218084
832781021519297920 308220 280755 292288 -218066
832781021537511808 308356 280905 292288 -218095
832781021555725696 308571 281089 292267 -218062
832781021573939584 308742 281262 292241 -218119
832781021592153472 308851 281364 292297 -218116
832781021610367360 308967 281476 292274 -218057
832781021628581120 308985 281522 292292 -218088
832781021646795008 309023 281507 292333 -218074
832781021665008896 308886 281423 292198 -218112
832781021683222784 308777 281281 292209 -218093
832781021701436672 308535 281133 292283 -218076
832781021719650560 308304 280932 292256 -218086
832781021737864448 308067 280631 292285 -218095
832781021756078208 307779 280389 292286 -218118
832781021774292096 307519 280064 292273 -218033
832781021792505984 307206 279743 292318 -218064
832781021810719872 306942 279418 292230 -218051
832781021828933760 306616 279115 292284 -218011
832781021847147648 306239 278842 292258 -218114
832781021865361536 306030 278593 292241 -218124
832781021883575296 305807 278329 292282 -218114
832781021901789184 305648 278188 292280 -218059
832781021920003072 305464 278029 292310 -218081
832781021938216960 305398 277907 292278 -218103
832781021956430848 305423 277904 292291 -218074
832781021974644736 305363 277917 292302 -218046
832781021992858624 305403 277979 292329 -218041
832781022011072384 305587 278041 292357 -218056
832781022029286272 305621 278163 292340 -218044
832781022047500160 305792 278328 292311 -218024
832781022065713972 305928 278432 292261 -218097
832781022083927040 306087 278621 292297 -218056
832781022102140160 306210 278807 292308 -218036
832781022120353280 306352 278972 292305 -218070
832781022138566528 306572 279099 292317 -218076
832781022156779648 306675 279240 292298 -218098
832781022174992768 306803 279296 292292 -218110
832781022193205888 306965 279486 292301 -218079
832781022211419008 306997 279537 292266 -218066
832781022229632128 307088 279644 292311 -218062
832781022247845376 307177 279610 292305 -218049
832781022266058496 307194 279695 292283 -218057
832781022284271616 307171 279658 292273 -218095
832781022302484736 307229 279729 292309 -217997
832781022320697856 307129 279676 292230 -218072
832781022338910976 307143 279684 292278 -218050
832781022357124224 307178 279724 292287 -218056
832781022375337344 307213 279739 292298 -218072
832781022393550464 307255 279759 292272 -218054
832781022411763584 307349 279842 292274 -218051
832781022429976704 307412 280010 292248 -218070
832781022448189824 307560 280116 292287 -218068
832781022466403072 307730 280214 292345 -218047
832781022484616192 307862 280394 292338 -218041
832781022502829312 308185 280722 292344 -218055
832781022521042432 308303 280794 292271 -218118
832781022539255552 308530 280960 292322 -218053
832781022557468800 308631 281090 292300 -218023
832781022575681920 308802 281302 292328 -218025
832781022593895040 308925 281415 292327 -218020
832781022612108160 309051 281514 292323 -218016
832781022630321280 309005 281568 292277 -218053
832781022648534400 309011 281531 292315 -218073
832781022666747648 308921 281463 292320 -218055
832781022684960768 308725 281253 292284 -218101
832781022703173888 308582 281090 292260 -218070
832781022721387008 308385 280874 292281 -218044
832781022739600128 308090 280606 292280 -218078
832781022757813248 307781 280288 292276 -218092
832781022776026496 307484 279999 292288 -218074
832781022794239616 307162 279691 292261 -218078
832781022812452736 306824 279325 292270 -218088
832781022830665952 306561 279060 292247 -218066
832781022848878592 306306 278818 292286 -218079
832781022867091200 305995 278543 292300 -218045
832781022885303808 305753 278303 292251 -218101
832781022903516544 305626 278165 292294 -218089
832781022921729152 305483 278027 292303 -218070
832781022939941760 305370 277900 292266 -218109
832781022958154368 305355 277850 292239 -218073
832781022976366976 305346 277859 292292 -218080
832781022994579712 305380 277848 292248 -218152
832781023012792320 305602 278098 292285 -218156
832781023031004928 305615 278194 292271 -218087
832781023049217536 305706 278226 292276 -218082
832781023067430144 305901 278446 292280 -218047
832781023085642880 306062 278615 292269 -218083
832781023103855488 306239 278803 292220 -218091
832781023122068096 306370 278911 292269 -218095
832781023140280704 306553 279065 292305 -218082
832781023158493312 306711 279196 292276 -218114
832781023176706048 306817 279291 292217 -218119
832781023194918656 306934 279461 292239 -218101
832781023213131264 306978 279514 292233 -218131
832781023231343872 307088 279626 292283 -218079
832781023249556480 307096 279632 292306 -218075
832781023267769216 307164 279574 292273 -218112
832781023285981824 307108 279594 292294 -218069
832781023304194432 307191 279708 292331 -218034
832781023322407040 307168 279677 292293 -218075
832781023340619648 307195 279688 292312 -218052
832781023358832384 307185 279703 292267 -218137
832781023377044992 307232 279757 292311 -218072
832781023395257600 307233 279814 292273 -218066
832781023413470208 307399 279915 292356 -218038
832781023431682816 307463 280023 292337 -218032
832781023449895552 307546 280126 292293 -218080
832781023468108160 307902 280413 292305 -218053
832781023486320768 307896 280413 292247 -218081
832781023504533376 308080 280569 292291 -218063
832781023522745984 308278 280715 292253 -218082
832781023540958720 308410 280929 292311 -218080
832781023559171328 308590 281113 292295 -218058
832781023577383936 308781 281316 292274 -218068
832781023595596568 308909 281386 292249 -218068
832781023613809408 308986 281519 292239 -218098
832781023632022272 309007 281512 292247 -218080
832781023650235264 309006 281585 292309 -218067
832781023668448128 308906 281407 292293 -218085
832781023686661120 308683 281228 292280 -218075
832781023704873984 308480 281070 292224 -218115
832781023723086976 308245 280855 292277 -218071
832781023741299840 307995 280613 292288 -218101
832781023759512832 307743 280213 292289 -218075
832781023777725696 307439 279992 292258 -218123
832781023795938688 307096 279681 292261 -218133
832781023814151552 306774 279356 292290 -218068
832781023832364544 306511 279059 292326 -218057
832781023850577408 306222 278789 292298 -218045
832781023868790400 305948 278483 292289 -218117
832781023887003264 305731 278211 292223 -218072
832781023905216256 305576 278124 292233 -218056
832781023923429120 305477 278022 292277 -218095
832781023941641984 305411 277919 292307 -218039
832781023959854976 305345 277900 292301 -218087
832781023978067840 305469 278019 292342 -218034
832781023996280832 305414 277938 292289 -218056
832781024014493696 305538 278017 292342 -218084
832781024032706688 305627 278082 292267 -218067
832781024050919552 305734 278260 292257 -218090
832781024069132544 305911 278454 292294 -218063
832781024087345408 306084 278616 292344 -218048
832781024105558400 306241 278747 292249 -218069
832781024123771264 306413 279001 292333 -218046
832781024141984256 306552 279109 292278 -218068
832781024160197120 306722 279239 292261 -218053
832781024178410112 306921 279386 292261 -218020
832781024196622976 306969 279472 292289 -218036
832781024214835968 307034 279562 292267 -218083
832781024233048832 307105 279642 292351 -218097
832781024251261824 307196 279695 292339 -218100
832781024269474688 307181 279722 292314 -218079
832781024287687552 307149 279674 292299 -218089
832781024305900544 307180 279717 292297 -218054
832781024324113408 307182 279730 292345 -218044
832781024342326400 307092 279637 292263 -218123
832781024360539394 307180 279752 292292 -218053
832781024378753280 307213 279774 292292 -218089
832781024396967168 307338 279814 292329 -218078
832781024415181056 307440 279877 292285 -218059
832781024433394944 307506 279966 292272 -218055
832781024451608704 307551 280156 292240 -218047
832781024469822592 307732 280242 292298 -218069
832781024488036480 307979 280517 292265 -218075
832781024506250368 308161 280709 292288 -218045
832781024524464256 308315 280828 292286 -218017
832781024542678144 308464 280996 292277 -218075
832781024560892032 308594 281130 292306 -218068
832781024579105792 308749 281307 292282 -218144
832781024597319680 308940 281426 292283 -218037
832781024615533568 309063 281519 292306 -218031
832781024633747456 309037 281522 292286 -218059
832781024651961344 308997 281540 292287 -218032
832781024670175232 308943 281436 292285 -218125
832781024688388992 308772 281244 292280 -218102
832781024706602880 308535 281051 292272 -218038
832781024724816768 308296 280786 292253 -218045
832781024743030656 307984 280458 292257 -218042
832781024761244544 307728 280280 292318 -218042
832781024779458432 307411 279953 292261 -218014
832781024797672320 307030 279626 292272 -218085
832781024815886080 306790 279309 292240 -218085
832781024834099968 306546 279058 292295 -218053
832781024852313856 306282 278819 292285 -218047
832781024870527744 306005 278542 292268 -218072
832781024888741632 305756 278243 292289 -218098
832781024906955520 305567 278154 292283 -218072
832781024925169408 305480 277969 292302 -218023
832781024943383168 305456 277922 292325 -218062
832781024961597056 305408 277966 292300 -218081
832781024979810944 305364 277952 292302 -218055
832781024998024832 305637 278087 292326 -218064
832781025016238720 305584 278092 292316 -218055
832781025034452608 305689 278173 292291 -218036
832781025052666496 305857 278405 292322 -218010
832781025070880256 305969 278521 292304 -218067
832781025089094144 306104 278602 292256 -218074
832781025107308032 306245 278734 292234 -218108
832781025125521892 306430 278938 292235 -218113
832781025143735040 306615 279089 292293 -218054
832781025161948160 306771 279309 292302 -218029
832781025180161408 306872 279408 292316 -218015
832781025198374528 306968 279526 292237 -218049
832781025216587776 306990 279542 292266 -218072
832781025234800896 307108 279611 292323 -218095
832781025253014144 307126 279620 292317 -218107
832781025271227264 307170 279682 292324 -218085
832781025289440512 307174 279660 292295 -218023
832781025307653632 307138 279714 292278 -218073
832781025325866880 307163 279727 292289 -218032
832781025344080000 307161 279731 292277 -218055
832781025362293120 307255 279677 292291 -218024
832781025380506368 307279 279756 292282 -218056
832781025398719488 307302 279803 292346 -218041
832781025416932736 307394 279956 292322 -217986
832781025435145856 307430 280044 292295 -218052
832781025453359104 307570 280201 292281 -218067
832781025471572224 307739 280319 292317 -218050
832781025489785472 307998 280446 292321 -218027
832781025507998592 308114 280609 292312 -218059
832781025526211840 308276 280793 292257 -218072
832781025544424960 308486 280989 292294 -218061
832781025562638080 308610 281146 292277 -218072
832781025580851328 308795 281286 292304 -218079
832781025599064448 308900 281429 292252 -218122
832781025617277696 308999 281546 292263 -218065
832781025635490816 309089 281536 292293 -218071
832781025653704064 309039 281473 292319 -218053
832781025671917184 308909 281356 292235 -218066
832781025690130432 308719 281197 292289 -218069
832781025708343552 308507 281063 292339 -218063
832781025726556800 308259 280815 292346 -218055
832781025744769920 308008 280577 292350 -218074
832781025762983040 307689 280279 292317 -218082
832781025781196288 307445 279995 292272 -218112
832781025799409408 307137 279642 292255 -218046
832781025817622656 306803 279287 292241 -218025
832781025835835776 306486 278980 292274 -218016
832781025854049024 306215 278702 292224 -218079
832781025872262144 306027 278492 292308 -218031
832781025890475392 305739 278238 292268 -218055
832781025908688548 305590 278078 292291 -218086
832781025926902400 305508 277932 292274 -218071
832781025945116288 305397 277867 292284 -218046
832781025963330048 305443 277949 292242 -218057
832781025981543936 305438 277999 292305 -218027
832781025999757696 305418 277990 292292 -218096
832781026017971584 305524 278074 292265 -218119
832781026036185344 305667 278194 292323 -218084
832781026054399232 305771 278292 292325 -218092
832781026072613120 305991 278504 292353 -218075
832781026090826880 306159 278674 292277 -218118
832781026109040768 306331 278848 292288 -218056
832781026127254528 306445 279017 292319 -218112
832781026145468416 306685 279147 292355 -218055
832781026163682176 306770 279246 292309 -218051
832781026181896064 306908 279338 292278 -218076
832781026200109952 307013 279505 292325 -218074
832781026218323712 307110 279597 292281 -218032
832781026236537600 307144 279674 292257 -218071
832781026254751360 307097 279655 292277 -218103
832781026272965248 307132 279672 292289 -218165
832781026291179008 307115 279689 292281 -218114
832781026309392896 307157 279707 292240 -218108
832781026327606656 307178 279746 292229 -218076
832781026345820544 307111 279732 292215 -218107
832781026364034432 307183 279730 292252 -218084
832781026382248192 307217 279792 292249 -218064
832781026400462080 307246 279827 292343 -218053
832781026418675840 307338 279900 292371 -218113
832781026436889728 307462 280034 292291 -218064
832781026455103488 307608 280154 292308 -218068
832781026473317376 307940 280476 292300 -217997
832781026491531264 308056 280496 292272 -218064
832781026509745024 308218 280669 292348 -218078
832781026527958912 308385 280900 292395 -218045
832781026546172672 308515 281036 292293 -218025
832781026564386560 308717 281170 292298 -218061
832781026582600320 308781 281357 292319 -218063
832781026600814208 308903 281519 292331 -218061
832781026619028096 308990 281599 292315 -218048
832781026637241856 309067 281571 292281 -218087
832781026655455744 308975 281537 292284 -218025
832781026673669520 308927 281415 292333 -218029
832781026691881600 308708 281208 292281 -218066
832781026710093696 308535 280969 292259 -218013
832781026728305664 308237 280750 292271 -218068
832781026746517760 307974 280501 292235 -218098
832781026764729856 307682 280190 292263 -218029
832781026782941824 307407 279790 292222 -218045
832781026801153920 307065 279575 292232 -218062
832781026819366016 306721 279261 292278 -218079
832781026837577984 306367 278920 292271 -218131
832781026855790080 306136 278679 292267 -218089
832781026874002176 305904 278411 292284 -218055
832781026892214144 305679 278256 292308 -218000
832781026910426240 305569 278074 292308 -218073
832781026928638336 305420 277983 292257 -218054
832781026946850304 305403 277955 292266 -218070
832781026965062400 305304 277854 292268 -218112
832781026983274496 305411 278007 292253 -218113
832781027001486464 305508 278024 292310 -218074
832781027019698560 305545 278086 292295 -218051
832781027037910656 305652 278235 292309 -218044
832781027056122624 305824 278384 292315 -218053
832781027074334720 306009 278548 292267 -218069
832781027092546816 306215 278673 292286 -218058
832781027110758784 306357 278831 292267 -218114
832781027128970880 306471 278990 292280 -218072
832781027147182848 306660 279185 292303 -218030
832781027165394944 306821 279257 292335 -218037
832781027183607040 306928 279441 292328 -218034
832781027201819008 307027 279536 292259 -218098
832781027220031104 307074 279639 292287 -218096
832781027238243200 307109 279611 292281 -218078
832781027256455168 307214 279663 292324 -218087
832781027274667264 307177 279656 292288 -218092
832781027292879360 307239 279776 292319 -218013
832781027311091328 307184 279684 292265 -218071
832781027329303424 307222 279706 292301 -218058
832781027347515520 307174 279681 292256 -218135
832781027365727488 307193 279724 292272 -218080
832781027383939584 307217 279788 292325 -218049
832781027402151680 307274 279866 292235 -218098
832781027420363648 307369 279959 292309 -218089
832781027438575722 307532 280044 292317 -218073
832781027456786560 307674 280169 292320 -218061
832781027474997376 307762 280337 292319 -218125
832781027493208192 307962 280545 292258 -218106
832781027511419008 308094 280635 292255 -218131
832781027529629824 308283 280844 292283 -218064
832781027547840640 308521 280990 292272 -218048
832781027566051456 308673 281169 292292 -218073
832781027584262272 308846 281337 292320 -218097
832781027602473088 308947 281481 292322 -218086
832781027620683904 309025 281508 292274 -218090
832781027638894720 308996 281572 292306 -218053
832781027657105536 308961 281472 292256 -218106
832781027675316352 308840 281348 292229 -218084
832781027693527168 308649 281202 292250 -218069
832781027711737984 308479 281002 292249 -218092
832781027729948800 308260 280775 292241 -218106
832781027748159616 307904 280428 292204 -218069
832781027766370432 307586 280118 292231 -218088
832781027784581248 307289 279865 292297 -218093
832781027802792064 306992 279514 292319 -218048
832781027821002880 306660 279251 292269 -218118
832781027839213696 306363 278938 292272 -218082
832781027857424512 306139 278654 292224 -218092
832781027875635328 305838 278467 292226 -218143
832781027893846144 305742 278250 292263 -218050
832781027912056960 305561 278167 292307 -218031
832781027930267776 305442 278056 292302 -218038
832781027948478592 305369 277953 292307 -218066
832781027966689408 305328 277882 292259 -218088
832781027984900224 305365 277945 292218 -218076
832781028003111040 305450 278020 292241 -218102
832781028021321856 305616 278139 292348 -218070
832781028039532672 305676 278197 292265 -218096
832781028057743488 305838 278420 292312 -218127
832781028075954304 306045 278548 292338 -218081
832781028094165120 306131 278679 292301 -218057
832781028112375936 306299 278867 292297 -218065
832781028130586752 306496 279025 292329 -218039
832781028148797568 306651 279164 292332 -218080
832781028167008384 306813 279333 292367 -218084
832781028185219200 306946 279476 292371 -218035
832781028203430044 306966 279537 292343 -218081
832781028221640832 307115 279646 292384 -218058
832781028239851648 307162 279635 292351 -218067
832781028258062464 307130 279700 292286 -218071
832781028276273280 307201 279723 292300 -218053
832781028294484096 307210 279734 292295 -218087
832781028312694784 307254 279734 292273 -218096
832781028330905600 307237 279753 292287 -218049
832781028349116416 307245 279707 292298 -218032
832781028367327232 307217 279749 292277 -218081
832781028385538048 307279 279797 292287 -218064
832781028403748864 307359 279826 292271 -218044
832781028421959680 307483 279992 292276 -218027
832781028440170496 307597 280058 292300 -218108
832781028458381184 307710 280174 292307 -218107
832781028476592000 307795 280366 292252 -218055
832781028494802816 308000 280556 292294 -218131
832781028513013632 308158 280680 292277 -218107
832781028531224448 308517 281033 292354 -218025
832781028549435264 308588 281200 292285 -218039
832781028567646080 308770 281258 292317 -218072
832781028585856896 308899 281364 292292 -218093
832781028604067584 308967 281488 292286 -218038
832781028622278400 309012 281566 292320 -218053
832781028640489216 309065 281599 292280 -218089
832781028658700032 308987 281534 292307 -218079
832781028676910848 308845 281332 292283 -218056
832781028695121664 308707 281228 292301 -218086
832781028713332480 308475 280990 292307 -218053
832781028731543296 308219 280774 292299 -218137
832781028749753984 307901 280500 292333 -218126
832781028767964800 307654 280215 292285 -218050
832781028786175616 307354 279814 292291 -218065
832781028804386432 307085 279561 292337 -218040
832781028822597248 306703 279290 292309 -218063
832781028840808064 306486 278995 292304 -218063
832781028859018880 306208 278700 292299 -218057
832781028877229696 305913 278439 292274 -218089
832781028895440384 305728 278266 292267 -218083
832781028913651200 305567 278153 292321 -218012
832781028931862016 305484 277971 292320 -218041
832781028950072832 305438 277989 292317 -218075
832781028968283648 305353 277961 292352 -218100
832781028986494456 305425 277935 292337 -218065
832781029004705664 305476 278030 292285 -218104
832781029022916864 305601 278092 292290 -218136
832781029041128192 305706 278261 292274 -218120
832781029059339392 305864 278411 292304 -218073
832781029077550720 306019 278504 292282 -218137
832781029095761920 306229 278722 292372 -218133
832781029113973120 306398 278937 292308 -218089
832781029132184448 306544 279102 292305 -218044
832781029150395648 306723 279234 292312 -218037
832781029168606976 306798 279405 292345 -218065
832781029186818176 306896 279455 292362 -218100
832781029205029504 307040 279540 292207 -218046
832781029223240704 307075 279661 292261 -218113
832781029241451904 307133 279686 292284 -218088
832781029259663232 307152 279724 292265 -218064
832781029277874432 307196 279759 292375 -218030
832781029296085760 307167 279682 292295 -218061
832781029314296960 307233 279797 292331 -218005
832781029332508160 307160 279723 292275 -218022
832781029350719488 307151 279691 292320 -218110
832781029368930688 307208 279723 292317 -218066
832781029387142016 307319 279776 292338 -218057
832781029405353216 307382 279861 292365 -218066
832781029423564544 307446 279965 292336 -218042
832781029441775744 307580 280057 292303 -218065
832781029459986944 307665 280132 292317 -218087
832781029478198272 307860 280418 292365 -218024
832781029496409472 308039 280563 292305 -218072
832781029514620800 308196 280683 292284 -218112
832781029532832000 308365 280966 292325 -218067
832781029551043200 308538 281101 292290 -218058
832781029569254528 308668 281165 292263 -218081
832781029587465728 308806 281384 292340 -218078
832781029605677056 308992 281505 292343 -218046
832781029623888256 309006 281555 292288 -218039
832781029642099584 309099 281556 292359 -218025
832781029660310784 309028 281450 292301 -217979
832781029678521984 308914 281416 292392 -218021
832781029696733312 308660 281164 292290 -218042
832781029714944512 308492 280994 292323 -218093
832781029733155840 308211 280712 292309 -218073
832781029751367090 307914 280393 292277 -218125
832781029769579136 307596 280078 292299 -218080
832781029787791232 307236 279764 292323 -218099
832781029806003328 306962 279453 292292 -218057
832781029824215552 306639 279186 292253 -218082
832781029842427648 306378 278862 292300 -218120
832781029860639744 306148 278641 292324 -218143
832781029878851840 305902 278454 292342 -218085
832781029897064064 305730 278272 292322 -218085
832781029915276160 305540 278104 292366 -218138
832781029933488256 305385 277972 292337 -218132
832781029951700352 305339 277949 292297 -218119
832781029969912576 305351 277931 292369 -218186
832781029988124672 305454 278017 292359 -218088
832781030006336768 305512 278031 292350 -218073
832781030024548864 305585 278130 292343 -218016
832781030042760960 305699 278202 292266 -218052
832781030060973184 305862 278341 292257 -218069
832781030079185280 306041 278587 292301 -218063
832781030097397376 306208 278728 292318 -218062
832781030115609472 306393 278877 292321 -218071
832781030133821696 306594 279029 292304 -218101
832781030152033792 306704 279138 292297 -218054
832781030170245888 306824 279366 292285 -218054
832781030188457984 306928 279429 292274 -218076
832781030206670080 306980 279528 292307 -218054
832781030224882304 307000 279593 292270 -218079
832781030243094400 307104 279616 292278 -218083
832781030261306496 307119 279656 292331 -218091
832781030279518592 307139 279690 292291 -218080
832781030297730816 307161 279650 292297 -218018
832781030315942912 307181 279718 292318 -218031
832781030334155008 307212 279708 292338 -217999
832781030352367104 307180 279729 292298 -218085
832781030370579328 307211 279785 292328 -218083
832781030388791424 307268 279827 292327 -218090
832781030407003520 307344 279804 292294 -218083
832781030425215616 307458 279945 292278 -218080
832781030443427712 307539 279970 292255 -218103
832781030461639936 307631 280172 292237 -218112
832781030479852032 307836 280382 292293 -218132
832781030498064128 307937 280503 292258 -218108
832781030516276346 308153 280747 292312 -218115
832781030534488064 308354 280918 292256 -218103
832781030552699776 308457 281070 292287 -218137
832781030570911488 308667 281239 292298 -218138
832781030589123072 308868 281356 292312 -218070
832781030607334784 308922 281497 292284 -218123
832781030625546496 309043 281521 292307 -218040
832781030643758208 308985 281509 292280 -218080
832781030661969920 308896 281440 292265 -218058
832781030680181632 308793 281364 292321 -218063
832781030698393216 308624 281155 292328 -218068
832781030716604928 308354 280937 292193 -218081
832781030734816640 308154 280706 292300 -218020
832781030753028352 307824 280350 292237 -218073
832781030771240064 307523 280056 292201 -218088
832781030789451776 307293 279765 292275 -218066
832781030807663360 306948 279473 292275 -218123
832781030825875072 306634 279179 292266 -218096
832781030844086784 306306 278871 292316 -218069
832781030862298496 306039 278589 292267 -218145
832781030880510208 305863 278338 292321 -218098
832781030898721792 305657 278201 292278 -218056
832781030916933504 305519 278026 292251 -218070
832781030935145216 305357 277970 292244 -218115
832781030953356928 305398 277923 292331 -218041
832781030971568640 305363 277905 292229 -218085
832781030989780352 305427 277951 292244 -218049
832781031007991936 305493 277962 292323 -218042
832781031026203648 305648 278076 292288 -218054
832781031044415360 305787 278301 292335 -218084
832781031062627072 305858 278465 292309 -218073
832781031080838784 306071 278586 292319 -218055
832781031099050368 306182 278747 292299 -218119
832781031117262080 306332 278881 292306 -218115
832781031135473792 306514 279029 292287 -218140
832781031153685504 306700 279196 292315 -218142
832781031171897216 306914 279413 292346 -218049
832781031190108928 306896 279458 292311 -218105
832781031208320512 306949 279488 292263 -218102
832781031226532224 307042 279618 292280 -218084
832781031244743936 307108 279686 292229 -218115
832781031262955648 307136 279622 292258 -218118
832781031281167290 307144 279648 292311 -218069
832781031299378304 307182 279683 292307 -218055
832781031317589376 307203 279728 292304 -218113
832781031335800576 307140 279700 292306 -218069
832781031354011648 307166 279711 292248 -218059
832781031372222720 307228 279748 292226 -218069
832781031390433792 307280 279804 292278 -218037
832781031408644992 307312 279851 292312 -218084
832781031426856064 307462 279992 292333 -218064
832781031445067136 307565 280137 292370 -218074
832781031463278336 307711 280263 292340 -218023
832781031481489408 307849 280412 292379 -218059
832781031499700480 308048 280618 292320 -218020
832781031517911552 308240 280792 292346 -218065
832781031536122752 308399 280939 292339 -218076
832781031554333824 308578 281067 292403 -218085
832781031572544896 308719 281301 292386 -218064
832781031590755968 308917 281428 292349 -218005
832781031608967168 308930 281511 292311 -218070
832781031627178240 309029 281568 292299 -218089
832781031645389312 309037 281582 292354 -218058
832781031663600512 308959 281453 292292 -218065
832781031681811584 308821 281331 292276 -218109
832781031700022656 308655 281184 292320 -218044
832781031718233728 308423 280988 292322 -218082
832781031736444928 308221 280715 292325 -218028
832781031754656000 307862 280430 292314 -218053
832781031772867072 307563 280073 292308 -218069
832781031791078272 307216 279727 292287 -218053
832781031809289344 306854 279418 292294 -218096
832781031827500416 306591 279157 292372 -218063
832781031845711488 306343 278903 292378 -218063
832781031863922688 306044 278640 292304 -218091
832781031882133760 305857 278395 292363 -218061
832781031900344832 305689 278263 292360 -218033
832781031918555904 305523 278073 292343 -218124
832781031936767104 305420 277960 292282 -218108
832781031954978176 305356 277923 292291 -218005
832781031973189248 305389 277980 292415 -218055
832781031991400448 305369 277937 292297 -218109
832781032009611520 305470 278048 292315 -218063
832781032027822592 305617 278135 292316 -218085
832781032046033816 305787 278268 292304 -218067
832781032064244608 305902 278370 292282 -218089
832781032082455424 306055 278575 292361 -218074
832781032100666240 306251 278726 292285 -218119
832781032118877056 306388 278916 292290 -218115
832781032137087872 306563 279069 292300 -218054
832781032155298688 306668 279207 292327 -218082
832781032173509504 306786 279297 292287 -218080
832781032191720320 306909 279430 292292 -218095
832781032209931136 307024 279597 292290 -218053
832781032228141952 307011 279623 292273 -218102
832781032246352768 307098 279654 292321 -218074
832781032264563584 307121 279660 292233 -218086
832781032282774400 307114 279645 292249 -218098
832781032300985216 307140 279733 292297 -218088
832781032319196032 307122 279667 292275 -218117
832781032337406848 307159 279761 292315 -218106
832781032355617664 307181 279740 292277 -218122
832781032373828480 307237 279777 292308 -218131
832781032392039296 307241 279877 292281 -218104
832781032410250112 307369 279905 292291 -218106
832781032428460928 307458 279970 292291 -218105
832781032446671744 307520 280129 292306 -218097
832781032464882560 307711 280226 292340 -218090
832781032483093376 307813 280384 292309 -218074
832781032501304192 308117 280680 292276 -218083
832781032519515008 308235 280757 292285 -218055
832781032537725824 308393 280886 292286 -218093
832781032555936640 308615 281125 292295 -218031
832781032574147456 308745 281244 292302 -218109
832781032592358272 308829 281367 292288 -218088
832781032610569088 308950 281519 292269 -218101
832781032628779904 309003 281586 292268 -218104
832781032646990720 308957 281523 292295 -218069
832781032665201536 308944 281449 292277 -218080
832781032683412352 308798 281269 292332 -218151
832781032701623168 308617 281119 292336 -218065
832781032719833984 308430 280886 292266 -218078
832781032738044800 308139 280629 292335 -218066
832781032756255616 307795 280325 292269 -218080
832781032774466432 307528 280016 292322 -218151
832781032792677248 307193 279700 292243 -218105
832781032810888150 306893 279437 292314 -218087
832781032829099136 306628 279103 292368 -218147
832781032847310080 306389 278837 292303 -218058
832781032865520896 306105 278598 292268 -218091
832781032883731840 305872 278405 292277 -218075
832781032901942656 305664 278210 292301 -218019
832781032920153600 305548 278067 292282 -218042
832781032938364416 305436 277965 292285 -218042
832781032956575360 305440 277894 292326 -218056
832781032974786304 305365 277928 292323 -218096
832781032992997120 305425 277909 292291 -218076
832781033011208064 305566 278106 292284 -218075
832781033029418880 305711 278234 292299 -218087
832781033047629824 305795 278289 292372 -218079
832781033065840768 305974 278499 292412 -218030
832781033084051584 306055 278599 292340 -218065
832781033102262528 306344 278794 292455 -218085
832781033120473344 306469 278957 292384 -218031
832781033138684288 306570 279167 292349 -218082
832781033156895104 306745 279282 292337 -218023
832781033175106048 306824 279314 292293 -218084
832781033193316992 306930 279462 292299 -218090
832781033211527808 307027 279595 292287 -218000
832781033229738752 307108 279667 292302 -218050
832781033247949568 307108 279730 292379 -218069
832781033266160512 307163 279692 292337 -218071
832781033284371328 307131 279689 292329 -218116
832781033302582272 307145 279729 292321 -218074
832781033320793216 307205 279713 292341 -218076
832781033339004032 307233 279774 292357 -218052
832781033357214976 307201 279724 292307 -218101
832781033375425792 307269 279781 292385 -218072
832781033393636736 307276 279771 292294 -218097
832781033411847552 307329 279865 292247 -218024
832781033430058496 307471 279976 292275 -218055
832781033448269440 307583 280113 292277 -218053
832781033466480256 307801 280257 292309 -218053
832781033484691200 307938 280481 292353 -218035
832781033502902016 308075 280631 292266 -218087
832781033521112960 308344 280931 292367 -218079
832781033539323904 308429 280980 292304 -218087
832781033557534720 308640 281135 292300 -218061
832781033575745524 308785 281286 292282 -218087
832781033593957120 308824 281373 292272 -218167
832781033612168704 309023 281457 292303 -218115
832781033630380416 309066 281514 292287 -218098
832781033648592000 309047 281563 292265 -218098
832781033666803584 308955 281470 292282 -218082
832781033685015168 308772 281280 292287 -218125
832781033703226880 308560 281030 292292 -218102
832781033721438464 308312 280870 292260 -218100
832781033739650048 308055 280607 292266 -218113
832781033757861632 307750 280346 292268 -218088
832781033776073344 307485 280027 292277 -218114
832781033794284928 307180 279746 292298 -218082
832781033812496512 306865 279398 292256 -218079
832781033830708096 306553 279138 292307 -218063
832781033848919808 306306 278876 292272 -218082
832781033867131392 306089 278533 292323 -218075
832781033885342976 305863 278368 292300 -218076
832781033903554560 305657 278109 292269 -218070
832781033921766272 305499 278070 292324 -218071
832781033939977856 305443 277976 292323 -218136
832781033958189440 305369 277926 292317 -218071
832781033976401024 305358 277908 292303 -218070
832781033994612736 305382 277910 292283 -218130
832781034012824320 305505 278027 292299 -218092
832781034031035904 305624 278176 292284 -218069
832781034049247488 305785 278290 292237 -218065
832781034067459200 305927 278469 292289 -218042
832781034085670784 306061 278643 292306 -218113
832781034103882368 306280 278786 292355 -218056
832781034122093952 306420 279027 292290 -218029
832781034140305664 306564 279169 292331 -218082
832781034158517248 306740 279306 292385 -218040
832781034176728832 306849 279398 292293 -218010
832781034194940416 306972 279478 292348 -218073
832781034213152128 307048 279520 292307 -218059
832781034231363712 307100 279630 292306 -218091
832781034249575296 307194 279717 292358 -218017
832781034267786880 307118 279754 292391 -218053
832781034285998592 307213 279799 292367 -218063
832781034304210176 307212 279736 292395 -218014
832781034322421760 307108 279663 292302 -218084
832781034340633416 307202 279753 292361 -218058
832781034358844928 307224 279745 292328 -218088
832781034377056384 307241 279767 292267 -218092
832781034395267712 307285 279815 292252 -218083
832781034413479168 307351 279872 292249 -218117
832781034431690496 307476 279980 292298 -218090
832781034449901952 307591 280073 292315 -218101
832781034468113280 307886 280333 292272 -218051
832781034486324736 307947 280429 292307 -218080
832781034504536064 308097 280611 292319 -218096
832781034522747520 308280 280756 292285 -218101
832781034540958976 308458 280942 292318 -218133
832781034559170304 308651 281184 292341 -218025
832781034577381760 308752 281272 292287 -218106
832781034595593088 308891 281446 292332 -218172
832781034613804544 308991 281577 292355 -218085
832781034632015872 309011 281582 292314 -218089
832781034650227328 308986 281555 292240 -218079
832781034668438656 308947 281472 292287 -218076
832781034686650112 308811 281358 292319 -218034
832781034704861440 308609 281116 292302 -218066
832781034723072896 308373 280860 292321 -218104
832781034741284352 308115 280580 292308 -218119
832781034759495680 307814 280252 292234 -218157
832781034777707136 307520 280023 292308 -218082
832781034795918464 307214 279693 292289 -218088
832781034814129920 306867 279388 292312 -218018
832781034832341248 306579 279066 292321 -218011
832781034850552704 306299 278794 292267 -218063
832781034868764032 306051 278556 292259 -218038
832781034886975488 305852 278383 292304 -218073
832781034905186944 305647 278157 292292 -218080
832781034923398272 305531 278020 292260 -218063
832781034941609728 305408 277946 292343 -218067
832781034959821056 305421 277883 292342 -218051
832781034978032512 305440 277944 292333 -218101
832781034996243840 305544 278069 292300 -218114
832781035014455296 305591 278026 292289 -218068
832781035032666624 305683 278128 292272 -218075
832781035050878080 305831 278277 292260 -218095
832781035069089408 305947 278423 292229 -218076
832781035087300864 306173 278584 292327 -218099
832781035105512152 306318 278801 292292 -218110
832781035123723776 306455 278983 292289 -218086
832781035141935360 306645 279091 292267 -218066
832781035160146816 306802 279332 292332 -218074
832781035178358400 306847 279377 292305 -218085
832781035196569984 306981 279517 292295 -218125
832781035214781440 307049 279521 292302 -218073
832781035232993024 307134 279600 292308 -218158
832781035251204608 307139 279649 292349 -218131
832781035269416064 307191 279700 292311 -218108
832781035287627648 307179 279679 292320 -218137
832781035305839232 307178 279690 292312 -217987
832781035324050816 307151 279660 292358 -218071
832781035342262272 307238 279729 292360 -218061
832781035360473856 307223 279702 292309 -218031
832781035378685440 307274 279711 292327 -218075
832781035396896896 307322 279804 292306 -218116
832781035415108480 307385 279869 292297 -218087
832781035433320064 307506 279970 292285 -218076
832781035451531520 307658 280160 292289 -218089
832781035469743104 307802 280343 292369 -218027
832781035487954688 307939 280493 292343 -218089
832781035506166144 308235 280759 292290 -218119
832781035524377728 308347 280821 292336 -218033
832781035542589312 308497 280994 292340 -218048
832781035560800768 308653 281152 292322 -218035
832781035579012352 308868 281423 292335 -218039
832781035597223936 308878 281363 292265 -218081
832781035615435520 308970 281519 292264 -218123
832781035633646976 309071 281566 292314 -218110
832781035651858560 308968 281504 292305 -218172
832781035670070144 308942 281419 292286 -218119
832781035688281600 308764 281277 292311 -218117
832781035706493184 308587 281102 292301 -218136
832781035724704768 308306 280840 292271 -218133
832781035742916224 308044 280548 292273 -218072
832781035761127808 307714 280203 292258 -218058
832781035779339392 307517 279966 292329 -218031
832781035797550848 307146 279657 292319 -218047
832781035815762432 306755 279293 292230 -218137
832781035833974016 306499 279020 292242 -218101
832781035852185472 306186 278643 292252 -218147
832781035870396992 305914 278429 292263 -218172
832781035888607744 305727 278304 292248 -218098
832781035906818560 305593 278170 292276 -218175
832781035925029376 305505 278026 292288 -218113
832781035943240192 305406 277927 292268 -218061
832781035961451008 305356 277909 292311 -218072
832781035979661824 305328 277904 292258 -218097
832781035997872640 305384 277939 292271 -218113
832781036016083456 305677 278180 292294 -218074
832781036034294272 305747 278207 292334 -218063
832781036052505088 305815 278289 292252 -218092
832781036070715904 305979 278465 292266 -218110
832781036088926720 306152 278654 292261 -218127
832781036107137536 306326 278772 292276 -218134
832781036125348352 306423 278944 292280 -218212
832781036143559168 306688 279118 292290 -218109
832781036161769984 306726 279233 292274 -218113
832781036179980800 306898 279400 292317 -218099
832781036198191616 307010 279512 292331 -218097
832781036216402432 307060 279518 292287 -218105
832781036234613248 307093 279573 292269 -218084
832781036252824064 307147 279595 292289 -218112
832781036271034880 307185 279630 292314 -218127
832781036289245696 307185 279682 292258 -218081
832781036307456512 307093 279683 292274 -218142
832781036325667328 307181 279710 292354 -218116
832781036343878144 307166 279662 292273 -218124
832781036362088960 307152 279668 292317 -218124
832781036380299776 307163 279737 292268 -218109
832781036398510592 307274 279832 292271 -218076
832781036416721408 307367 279934 292215 -218107
832781036434932224 307480 280040 292271 -218051
832781036453143040 307619 280180 292303 -218078
832781036471353856 307794 280307 292293 -218030
832781036489564672 307949 280481 292302 -218090
832781036507775488 308088 280685 292277 -218087
832781036525986304 308378 280960 292308 -218083
832781036544197120 308511 281101 292265 -218103
832781036562407936 308670 281168 292306 -218045
832781036580618752 308834 281401 292316 -218013
832781036598829568 308940 281477 292268 -218068
832781036617040384 309077 281549 292290 -218053
832781036635251314 309051 281546 292300 -218022
832781036653462144 308977 281495 292288 -218101
832781036671672960 308891 281391 292331 -218051
832781036689883776 308792 281266 292315 -218116
832781036708094592 308548 281033 292268 -218082
832781036726305408 308270 280814 292284 -218118
832781036744516224 308039 280558 292308 -218115
832781036762727040 307754 280270 292285 -218139
832781036780937856 307421 279951 292270 -218089
832781036799148672 307125 279620 292289 -218131
832781036817359488 306815 279282 292333 -218149
832781036835570304 306456 278992 292328 -218058
832781036853781120 306199 278691 292321 -218112
832781036871991936 305926 278487 292273 -218119
832781036890202752 305787 278328 292337 -218115
832781036908413568 305633 278110 292275 -218137
832781036926624384 305487 277983 292239 -218101
832781036944835200 305472 277934 292309 -218019
832781036963046016 305356 277811 292266 -218087
832781036981256832 305354 277840 292231 -218114
832781036999467648 305457 277948 292276 -218054
832781037017678464 305540 278042 292193 -218063
832781037035889280 305712 278180 292288 -218033
832781037054100096 305785 278262 292231 -218122
832781037072310912 305952 278495 292294 -218104
832781037090521728 306108 278610 292269 -218168
832781037108732544 306323 278811 292288 -218116
832781037126943360 306470 278980 292275 -218113
832781037145154176 306590 279138 292272 -218138
832781037163364992 306770 279291 292281 -218096
832781037181575808 306829 279373 292294 -218113
832781037199786624 306972 279514 292237 -218103
832781037217997440 307043 279562 292297 -218153
832781037236208256 307103 279617 292336 -218097
832781037254419072 307145 279623 292290 -218141
832781037272629888 307236 279676 292357 -218088
832781037290840704 307198 279650 292310 -218115
832781037309051520 307171 279632 292343 -218068
832781037327262336 307206 279699 292316 -218055
832781037345473152 307189 279681 292295 -218107
832781037363683968 307173 279723 292307 -218113
832781037381894784 307282 279787 292257 -218110
832781037400105636 307337 279862 292250 -218084
832781037418315648 307386 279904 292286 -218083
832781037436525696 307511 280059 292305 -218050
832781037454735872 307620 280104 292244 -218095
832781037472945920 307849 280245 292310 -218059
832781037491155968 308100 280546 292256 -218097
832781037509366144 308179 280697 292302 -218093
832781037527576192 308320 280903 292319 -218083
832781037545786240 308509 281003 292320 -218052
832781037563996416 308689 281219 292314 -218062
832781037582206464 308805 281329 292344 -218082
832781037600416512 308967 281478 292333 -218093
832781037618626688 309095 281584 292315 -218022
832781037636836736 309067 281626 292350 -218053
832781037655046784 308991 281526 292284 -218151
832781037673256960 308927 281343 292301 -218101
832781037691467008 308746 281234 292365 -218071
832781037709677056 308509 281065 292334 -218064
832781037727887232 308290 280824 292400 -218072
832781037746097280 307996 280498 292363 -218045
832781037764307328 307775 280230 292357 -218076
832781037782517504 307422 279903 292322 -218159
832781037800727552 307092 279606 292304 -218103
832781037818937600 306710 279251 292226 -218106
832781037837147776 306487 279016 292345 -218087
832781037855357824 306188 278700 292263 -218123
832781037873567872 305978 278475 292267 -218109
832781037891778048 305768 278273 292299 -218144
832781037909988096 305547 278068 292274 -218136
832781037928198144 305431 278003 292300 -218061
832781037946408320 305429 277925 292323 -218073
832781037964618368 305419 277867 292274 -218131
832781037982828416 305385 277897 292263 -218150
832781038001038592 305556 278087 292285 -218088
832781038019248640 305616 278119 292272 -218113
832781038037458688 305711 278232 292255 -218041
832781038055668864 305866 278337 292314 -218058
832781038073878912 305952 278506 292317 -218114
832781038092088960 306147 278653 292282 -218037
832781038110299136 306273 278832 292275 -218092
832781038128509184 306471 279053 292289 -218082
832781038146719232 306677 279159 292317 -218088
832781038164929440 306801 279307 292337 -218061
832781038183140224 306872 279454 292328 -218081
832781038201351040 306943 279459 292254 -218109
832781038219561856 307087 279589 292320 -218089
832781038237772672 307082 279634 292324 -218087
832781038255983488 307087 279649 292235 -218120
832781038274194304 307108 279708 292288 -218117
832781038292405120 307133 279722 292300 -218087
832781038310615936 307155 279715 292325 -218092
832781038328826752 307225 279723 292365 -218044
832781038347037568 307219 279691 292271 -218085
832781038365248384 307288 279747 292288 -218076
832781038383459200 307290 279763 292328 -218028
832781038401670016 307408 279868 292309 -218082
832781038419880832 307449 279965 292339 -218036
832781038438091648 307579 280055 292365 -218091
832781038456302464 307665 280206 292306 -218120
832781038474513280 307725 280269 292273 -218085
832781038492724096 307999 280592 292346 -218002
832781038510934912 308278 280828 292303 -218045
832781038529145728 308374 280907 292339 -218058
832781038547356544 308502 281066 292264 -218057
832781038565567360 308671 281210 292300 -218047
832781038583778176 308839 281285 292274 -218101
832781038601988992 308974 281509 292357 -218056
832781038620199808 309055 281594 292329 -218050
832781038638410624 309065 281528 292336 -218025
832781038656621440 308984 281489 292355 -218122
832781038674832256 308885 281365 292306 -218102
832781038693043072 308706 281281 292339 -218139
832781038711253888 308584 281106 292348 -218057
832781038729464704 308331 280810 292315 -218087
832781038747675520 307998 280527 292285 -218081
832781038765886336 307701 280238 292299 -218082
832781038784097152 307340 279859 292300 -218105
832781038802307968 307079 279570 292311 -218081
832781038820518784 306701 279253 292271 -218051
832781038838729600 306486 279017 292342 -218110
832781038856940416 306173 278742 292327 -218087
832781038875151232 306021 278484 292349 -218065
832781038893362048 305808 278270 292327 -218093
832781038911572864 305664 278157 292363 -218032
832781038929783762 305507 278016 292294 -218084
832781038947993216 305446 277959 292358 -218145
832781038966202624 305357 277928 292324 -218085
832781038984412032 305390 277933 292301 -218109
832781039002621568 305441 278033 292267 -218067
832781039020830976 305608 278194 292310 -218074
832781039039040384 305728 278282 292331 -218039
832781039057249792 305849 278355 292333 -218047
832781039075459328 306047 278482 292282 -218087
832781039093668736 306154 278672 292284 -218099
832781039111878144 306326 278836 292256 -218152
832781039130087552 306473 278964 292315 -218076
832781039148296960 306676 279143 292303 -218070
832781039166506496 306819 279325 292334 -218049
832781039184715904 306927 279401 292317 -218035
832781039202925312 307040 279493 292327 -218027
832781039221134720 307087 279562 292350 -218059
832781039239344256 307169 279595 292314 -218112
832781039257553664 307166 279607 292289 -218122
832781039275763072 307164 279641 292224 -218079
832781039293972480 307170 279724 292359 -218093
832781039312181888 307154 279696 292280 -218133
832781039330391424 307208 279749 292290 -218131
832781039348600832 307178 279733 292258 -218079
832781039366810240 307220 279818 292301 -218035
832781039385019648 307241 279828 292331 -218024
832781039403229184 307314 279829 292305 -218074
832781039421438592 307432 279910 292278 -218092
832781039439648000 307474 280008 292314 -218105
832781039457857408 307720 280224 292320 -218051
832781039476066816 307983 280479 292348 -218103
832781039494276352 308085 280515 292284 -218136
832781039512485760 308211 280690 292306 -218102
832781039530695168 308425 280917 292329 -218041
832781039548904576 308605 281072 292389 -218046
832781039567114112 308712 281217 292429 -218047
832781039585323520 308868 281402 292332 -218045
832781039603532928 308974 281460 292328 -218055
832781039621742336 309084 281568 292388 -218039
832781039639951744 309040 281558 292310 -218100
832781039658161280 309101 281516 292352 -218019
832781039676370688 308863 281360 292295 -218104
832781039694580098 308711 281176 292271 -218073
832781039712791552 308444 280973 292322 -218135
832781039731003008 308219 280773 292331 -218132
832781039749214464 307997 280477 292309 -218110
832781039767425920 307689 280194 292304 -218085
832781039785637376 307378 279904 292315 -218099
832781039803848960 307050 279575 292357 -218088
832781039822060416 306656 279228 292295 -218098
832781039840271872 306346 278930 292264 -218131
832781039858483328 306154 278726 292333 -218102
832781039876694784 305907 278445 292247 -218109
832781039894906240 305706 278246 292337 -218078
832781039913117696 305562 278116 292354 -218047
832781039931329152 305472 278029 292372 -218025
832781039949540736 305369 277933 292341 -218051
832781039967752192 305386 277898 292343 -218029
832781039985963648 305430 277950 292318 -218034
832781040004175104 305445 277953 292280 -218083
832781040022386560 305608 278115 292302 -218081
832781040040598016 305748 278282 292219 -218061
832781040058809472 305847 278330 292264 -218115
832781040077020928 306058 278599 292337 -218061
832781040095232512 306174 278698 292307 -218078
832781040113443968 306246 278903 292305 -218130
832781040131655424 306494 279087 292318 -218052
832781040149866880 306688 279216 292294 -218050
832781040168078336 306881 279393 292340 -218038
832781040186289792 306968 279503 292320 -217997
832781040204501248 307031 279576 292269 -218041
832781040222712704 307116 279658 292292 -218059
832781040240924288 307142 279711 292329 -218057
832781040259135744 307181 279720 292280 -218078
832781040277347200 307186 279730 292334 -218095
832781040295558656 307275 279702 292333 -218032
832781040313770112 307249 279706 292366 -218089
832781040331981568 307228 279693 292326 -218083
832781040350193024 307190 279697 292327 -218049
832781040368404480 307185 279686 292282 -218055
832781040386615936 307299 279781 292370 -218064
832781040404827520 307386 279871 292316 -218073
832781040423038976 307444 279931 292333 -218049
832781040441250432 307512 280005 292275 -218081
832781040459461900 307733 280195 292354 -218034
832781040477671936 307835 280288 292322 -218069
832781040495881984 308101 280620 292316 -218068
832781040514092160 308292 280760 292353 -218024
832781040532302208 308472 280968 292375 -218046
832781040550512256 308553 281092 292316 -218098
832781040568722432 308719 281252 292297 -218051
832781040586932480 308908 281403 292378 -218070
832781040605142528 308980 281483 292339 -218053
832781040623352704 309013 281567 292339 -218066
832781040641562752 309031 281557 292293 -218042
832781040659772800 309056 281523 292349 -218037
832781040677982976 308873 281379 292345 -218066
832781040696193024 308695 281191 292309 -218045
832781040714403072 308476 280981 292317 -218114
832781040732613248 308263 280696 292301 -218121
832781040750823296 307945 280466 292341 -218088
832781040769033344 307643 280163 292312 -218064
832781040787243520 307305 279798 292348 -218086
832781040805453568 307043 279552 292402 -218036
832781040823663616 306703 279212 292339 -218046
832781040841873792 306394 278905 292355 -218038
832781040860083840 306174 278678 292337 -218062
832781040878293888 305928 278437 292339 -218104
832781040896504064 305764 278276 292343 -218078
832781040914714112 305633 278127 292335 -218038
832781040932924160 305437 278026 292287 -218148
832781040951134336 305416 277951 292323 -218039
832781040969344384 305373 277899 292250 -218101
832781040987554432 305453 277952 292307 -218052
832781041005764608 305674 278143 292317 -218075
832781041023974656 305722 278205 292366 -218063
832781041042184704 305807 278368 292360 -218036
832781041060394880 305910 278395 292323 -218027
832781041078604928 306135 278580 292345 -218057
832781041096814976 306265 278730 292329 -218062
832781041115025152 306380 278915 292350 -218086
832781041133235200 306541 279087 292326 -218101
832781041151445248 306734 279286 292392 -218053
832781041169655424 306806 279339 292324 -218081
832781041187865524 307012 279503 292354 -217980
832781041206077184 307102 279584 292337 -218050
832781041224288896 307076 279614 292255 -218090
832781041242500608 307162 279622 292267 -218061
832781041260712320 307147 279665 292322 -218076
832781041278924032 307199 279652 292348 -218110
832781041297135744 307223 279730 292327 -218108
832781041315347584 307239 279701 292336 -218081
832781041333559296 307234 279669 292320 -218123
832781041351771008 307217 279693 292276 -218076
832781041369982720 307232 279761 292276 -218109
832781041388194432 307299 279766 292241 -218131
832781041406406144 307400 279862 292291 -218095
832781041424617856 307518 280063 292334 -218063
832781041442829568 307637 280147 292314 -218053
832781041461041280 307711 280196 292292 -218118
832781041479252992 307892 280363 292324 -218133
832781041497464704 308046 280519 292369 -218084
832781041515676416 308389 280899 292378 -218074
832781041533888256 308486 280983 292338 -218130
832781041552099968 308652 281143 292310 -218075
832781041570311680 308787 281310 292333 -218071
832781041588523392 308967 281476 292367 -218091
832781041606735104 309027 281521 292302 -218101
832781041624946816 309076 281589 292305 -218080
832781041643158528 309032 281573 292260 -218098
832781041661370240 308972 281558 292348 -218160
832781041679581952 308929 281408 292359 -218101
832781041697793664 308685 281227 292303 -218046
832781041716005376 308477 280959 292307 -218117
832781041734217088 308206 280715 292373 -218095
832781041752428928 307964 280474 292342 -218134
832781041770640640 307660 280172 292375 -218150
832781041788852352 307324 279785 292358 -218130
832781041807064064 307015 279470 292307 -218120
832781041825275776 306685 279167 292323 -218093
832781041843487488 306418 278934 292351 -218091
832781041861699200 306124 278694 292335 -218103
832781041879910912 305911 278436 292356 -218042
832781041898122624 305706 278235 292329 -218074
832781041916334336 305636 278081 292367 -218047
832781041934546048 305450 278029 292310 -218121
832781041952757888 305407 277924 292335 -218080
832781041970969610 305447 277991 292360 -218045
832781041989181824 305467 278027 292400 -218052
832781042007394048 305535 278050 292379 -218023
832781042025606272 305615 278162 292345 -218058
832781042043818496 305742 278306 292326 -218041
832781042062030720 305911 278413 292335 -218054
832781042080242944 306076 278671 292387 -218062
832781042098455168 306198 278771 292396 -218083
832781042116667520 306444 278966 292354 -218114
832781042134879744 306530 279094 292312 -218091
832781042153091968 306716 279215 292297 -218098
832781042171304192 306827 279337 292300 -218034
832781042189516416 306935 279409 292303 -218078
832781042207728640 307117 279542 292322 -218082
832781042225940864 307115 279637 292278 -218092
832781042244153088 307100 279678 292344 -218150
832781042262365312 307178 279707 292317 -218116
832781042280577536 307211 279729 292348 -218062
832781042298789760 307170 279716 292261 -218105
832781042317001984 307188 279685 292309 -218115
832781042335214208 307201 279763 292325 -218080
832781042353426560 307261 279757 292315 -218024
832781042371638784 307288 279818 292311 -218044
832781042389851008 307293 279811 292356 -218117
832781042408063232 307335 279882 292307 -218080
832781042426275456 307452 280021 292349 -218100
832781042444487680 307554 280049 292349 -218098
832781042462699904 307668 280213 292388 -218104
832781042480912128 308019 280563 292362 -218038
832781042499124352 308170 280603 292396 -218024
832781042517336576 308270 280758 292348 -218039
832781042535548800 308406 280961 292339 -218039
832781042553761024 308626 281081 292346 -218039
832781042571973376 308776 281269 292366 -218013
832781042590185600 308815 281358 292315 -218068
832781042608397824 308945 281483 292349 -218070
832781042626610048 309070 281527 292294 -218087
832781042644822272 309045 281510 292322 -218090
832781042663034496 308961 281500 292267 -218098
832781042681246720 308843 281268 292320 -218096
832781042699458944 308703 281176 292365 -218063
832781042717671168 308426 280960 292351 -218118
832781042735883442 308129 280666 292306 -218168
832781042754094080 307919 280346 292333 -218122
832781042772304768 307653 280074 292334 -218067
832781042790515328 307317 279750 292298 -218049
832781042808726016 306947 279475 292350 -218024
832781042826936576 306667 279130 292299 -218113
832781042845147264 306351 278909 292329 -218105
832781042863357952 306138 278641 292350 -218124
832781042881568512 305876 278445 292324 -218115
832781042899779200 305643 278248 292301 -218051
832781042917989760 305534 278123 292328 -218051
832781042936200448 305432 277926 292327 -218058
832781042954411008 305397 277960 292349 -218098
832781042972621696 305344 277896 292332 -218133
832781042990832384 305512 278075 292282 -218078
832781043009042944 305519 278071 292316 -218115
832781043027253632 305629 278159 292298 -218134
832781043045464192 305798 278291 292319 -218108
832781043063674880 305924 278389 292325 -218150
832781043081885568 306058 278574 292326 -218096
832781043100096128 306288 278775 292349 -218015
832781043118306816 306452 278914 292350 -218095
832781043136517376 306620 279075 292298 -218084
832781043154728064 306726 279301 292372 -218101
832781043172938752 306836 279341 292268 -218073
832781043191149312 306947 279528 292289 -218074
832781043209360000 307065 279549 292349 -218065
832781043227570560 307148 279656 292352 -218054
832781043245781248 307205 279746 292327 -218075
832781043263991936 307193 279674 292283 -218092
832781043282202496 307110 279661 292327 -218119
832781043300413184 307189 279743 292318 -218104
832781043318623744 307216 279689 292282 -218053
832781043336834432 307220 279715 292298 -218121
832781043355044992 307220 279765 292317 -218098
832781043373255680 307224 279745 292320 -218063
832781043391466368 307313 279813 292345 -218087
832781043409676928 307349 279899 292314 -218058
832781043427887616 307497 280021 292305 -218084
832781043446098176 307610 280133 292349 -218063
832781043464308864 307707 280282 292360 -218037
832781043482519552 307868 280414 292327 -218070
832781043500730134 308064 280649 292308 -218054
832781043518941312 308272 280688 292294 -218053
832781043537152512 308468 280948 292360 -218057
832781043555363584 308629 281110 292374 -218108
832781043573574784 308759 281269 292325 -218132
832781043591785856 308876 281425 292295 -218097
832781043609997056 309032 281563 292320 -218105
832781043628208128 309075 281585 292247 -218105
832781043646419328 309028 281584 292276 -218101
832781043664630528 308962 281499 292298 -218040
832781043682841600 308846 281292 292272 -218079
832781043701052800 308674 281162 292329 -218076
832781043719263872 308448 280920 292333 -218047
832781043737475072 308205 280655 292325 -218102
832781043755686144 307887 280338 292358 -218021
832781043773897344 307561 280019 292338 -218115
832781043792108416 307189 279697 292271 -218143
832781043810319616 306964 279415 292338 -218044
832781043828530816 306642 279187 292396 -218090
832781043846741888 306326 278880 292357 -218104
832781043864953088 306076 278570 292352 -218101
832781043883164160 305809 278410 292289 -218103
832781043901375360 305700 278184 292312 -218079
832781043919586432 305530 278070 292323 -218158
832781043937797632 305505 278011 292319 -218072
832781043956008832 305446 277917 292286 -218105
832781043974219904 305413 277960 292361 -218061
832781043992431104 305435 277985 292316 -218139
832781044010642176 305499 278039 292293 -218109
832781044028853376 305565 278130 292295 -218131
832781044047064448 305826 278301 292331 -218069
832781044065275648 305887 278428 292293 -218101
832781044083486720 306102 278631 292299 -218081
832781044101697920 306292 278777 292316 -218067
832781044119909120 306469 278890 292251 -218142
832781044138120192 306641 279089 292287 -218069
832781044156331392 306729 279325 292327 -218087
832781044174542464 306880 279391 292256 -218139
832781044192753664 307005 279481 292350 -218092
832781044210964736 307066 279536 292417 -218082
832781044229175936 307120 279591 292301 -218138
832781044247387136 307196 279623 292339 -218078
832781044265598190 307208 279681 292312 -218138
832781044283809408 307233 279686 292303 -218143
832781044302020608 307201 279650 292304 -218116
832781044320231808 307183 279651 292248 -218169
832781044338443008 307191 279660 292256 -218140
832781044356654336 307204 279760 292321 -218135
832781044374865536 307287 279731 292344 -218100
832781044393076736 307332 279796 292271 -218099
832781044411287936 307384 279882 292294 -218110
832781044429499136 307481 279990 292289 -218096
832781044447710336 307602 280174 292281 -218063
832781044465921536 307777 280275 292287 -218063
832781044484132736 307881 280386 292357 -218143
832781044502344064 308060 280580 292362 -218113
832781044520555264 308290 280775 292321 -218057
832781044538766464 308379 280936 292287 -218079
832781044556977664 308598 281112 292285 -218087
832781044575188864 308743 281276 292289 -218072
832781044593400064 308839 281394 292266 -218123
832781044611611264 308986 281514 292292 -218115
832781044629822464 309005 281525 292261 -218120
832781044648033792 309023 281563 292278 -218070
832781044666244992 308958 281483 292316 -218053
832781044684456192 308808 281310 292289 -218107
832781044702667392 308658 281094 292276 -218086
832781044720878592 308408 280889 292342 -218123
832781044739089792 308106 280638 292326 -218080
832781044757300992 307795 280332 292300 -218131
832781044775512320 307507 280035 292329 -218123
832781044793723520 307194 279752 292294 -218088
832781044811934720 306891 279422 292320 -218093
832781044830145920 306611 279111 292310 -218106
832781044848357120 306392 278873 292303 -218097
832781044866568320 306078 278594 292318 -218170
832781044884779520 305890 278387 292311 -218173
832781044902990720 305617 278177 292244 -218156
832781044921202048 305443 278030 292243 -218155
832781044939413248 305422 277959 292336 -218045
832781044957624448 305382 277921 292269 -218090
832781044975835648 305499 277999 292271 -218073
832781044994046848 305424 277939 292212 -218143
832781045012258048 305587 278084 292299 -218109
832781045030469296 305657 278097 292233 -218106
832781045048681728 305797 278302 292240 -218134
832781045066894208 305953 278452 292311 -218135
832781045085106688 306122 278606 292304 -218102
832781045103319296 306268 278764 292294 -218102
832781045121531776 306431 278946 292273 -218042
832781045139744256 306539 279099 292306 -218140
832781045157956736 306753 279210 292328 -218103
832781045176169216 306869 279349 292284 -218140
832781045194381696 306999 279468 292291 -218119
832781045212594304 307061 279580 292289 -218121
832781045230806784 307040 279599 292206 -218152
832781045249019264 307152 279665 292283 -218074
832781045267231744 307185 279675 292272 -218112
832781045285444224 307131 279716 292254 -218133
832781045303656832 307119 279718 292265 -218121
832781045321869312 307153 279693 292268 -218088
832781045340081792 307207 279729 292283 -218051
832781045358294272 307205 279774 292285 -218075
832781045376506752 307307 279778 292293 -218138
832781045394719360 307321 279854 292288 -218143
832781045412931840 307371 279927 292360 -218126
832781045431144320 307505 279987 292353 -218127
832781045449356800 307646 280133 292319 -218105
832781045467569280 307794 280236 292322 -218095
832781045485781760 308067 280536 292297 -218124
832781045503994368 308193 280582 292255 -218104
832781045522206848 308345 280824 292321 -218134
832781045540419328 308524 280952 292319 -218085
832781045558631808 308675 281162 292293 -218070
832781045576844288 308786 281317 292266 -218118
832781045595056896 308913 281418 292325 -218122
832781045613269376 308968 281525 292275 -218075
832781045631481856 309046 281576 292302 -218097
832781045649694336 309047 281559 292322 -218073
832781045667906816 308958 281515 292352 -218116
832781045686119296 308827 281330 292342 -218091
832781045704331904 308618 281131 292301 -218106
832781045722544384 308402 280903 292268 -218117
832781045740756864 308066 280619 292272 -218135
832781045758969344 307797 280330 292282 -218160
832781045777181824 307547 280026 292348 -218118
832781045795394432 307134 279717 292290 -218168
832781045813606954 306846 279387 292266 -218097
832781045831818752 306555 279102 292301 -218117
832781045850030592 306329 278787 292274 -218088
832781045868242432 306039 278534 292387 -218119
832781045886454272 305837 278352 292360 -218105
832781045904666112 305727 278099 292334 -218148
832781045922877952 305545 277994 292328 -218117
832781045941089792 305435 277911 292310 -218155
832781045959301632 305321 277799 292272 -218154
832781045977513472 305371 277960 292322 -218097
832781045995725312 305382 277951 292326 -218150
832781046013937152 305467 277954 292273 -218143
832781046032148992 305592 278135 292270 -218139
832781046050360704 305783 278307 292319 -218116
832781046068572544 305930 278442 292230 -218130
832781046086784384 306146 278630 292269 -218130
832781046104996224 306286 278792 292191 -218157
832781046123208064 306447 278947 292270 -218130
832781046141419904 306580 279095 292298 -218132
832781046159631744 306724 279276 292369 -218141
832781046177843584 306877 279392 292322 -218142
832781046196055424 306951 279449 292321 -218173
832781046214267264 307046 279497 292299 -218156
832781046232479104 307080 279631 292297 -218126
832781046250690944 307133 279713 292309 -218116
832781046268902784 307184 279718 292319 -218118
832781046287114624 307173 279749 292334 -218116
832781046305326464 307199 279696 292290 -218074
832781046323538304 307154 279666 292266 -218153
832781046341750144 307207 279686 292281 -218110
832781046359961984 307212 279752 292320 -218113
832781046378173824 307235 279822 292353 -218099
832781046396385664 307324 279874 292322 -218063
832781046414597504 307407 279871 292277 -218064
832781046432809344 307531 280035 292334 -218072
832781046451021184 307608 280090 292307 -218075
832781046469232896 307778 280299 292230 -218104
832781046487444736 307966 280433 292229 -218147
832781046505656576 308098 280620 292336 -218101
832781046523868416 308305 280846 292307 -218079
832781046542080256 308515 281020 292259 -218050
832781046560292096 308678 281180 292292 -218067
832781046578504000 308842 281349 292322 -218105
832781046596716160 308924 281425 292282 -218113
832781046614928384 309036 281579 292288 -218171
832781046633140736 309121 281579 292378 -218063
832781046651352960 309083 281591 292396 -218061
832781046669565184 309015 281477 292353 -218065
832781046687777536 308780 281287 292322 -218142
832781046705989760 308576 281059 292293 -218117
832781046724202112 308370 280886 292325 -218114
832781046742414336 308134 280580 292288 -218047
832781046760626560 307839 280350 292341 -218102
832781046778838912 307534 279899 292244 -218137
832781046797051136 307201 279658 292342 -218063
832781046815263360 306892 279388 292336 -218120
832781046833475712 306580 279118 292292 -218085
832781046851687936 306229 278742 292266 -218118
832781046869900160 306019 278486 292199 -218092
832781046888112512 305845 278324 292322 -218103
832781046906324736 305651 278148 292315 -218103
832781046924537088 305506 277988 292254 -218087
832781046942749312 305442 277945 292318 -218050
832781046960961536 305363 277900 292270 -218107
832781046979173888 305446 277957 292328 -218073
832781046997386112 305459 278010 292335 -218068
832781047015598336 305528 277984 292287 -218106
832781047033810688 305661 278095 292278 -218098
832781047052022912 305847 278289 292293 -218089
832781047070235136 305930 278426 292290 -218144
832781047088447488 306175 278673 292250 -218116
832781047106659712 306298 278796 292282 -218102
832781047124872064 306511 278963 292287 -218083
832781047143084288 306673 279148 292285 -218074
832781047161296512 306719 279222 292199 -218138
832781047179508864 306917 279401 292308 -218095
832781047197721088 306965 279461 292239 -218114
832781047215933312 307116 279615 292303 -218091
832781047234145664 307074 279613 292234 -218131
832781047252357888 307128 279658 292292 -218160
832781047270570112 307165 279648 292302 -218151
832781047288782464 307245 279673 292295 -218178
832781047306994688 307227 279711 292289 -218170
832781047325207040 307217 279724 292287 -218170
832781047343419360 307174 279705 292337 -218166
832781047361631872 307182 279722 292336 -218152
832781047379844352 307241 279765 292317 -218151
832781047398056704 307292 279787 292314 -218147
832781047416269184 307400 279959 292317 -218119
832781047434481664 307513 279991 292360 -218134
832781047452694016 307680 280137 292339 -218088
832781047470906496 307809 280254 292319 -218119
832781047489118976 308000 280508 292335 -218115
832781047507331328 308163 280615 292311 -218169
832781047525543808 308325 280815 292320 -218098
832781047543756288 308482 280935 292242 -218166
832781047561968640 308681 281132 292261 -218115
832781047580181120 308826 281311 292259 -218164
832781047598393472 308908 281389 292256 -218126
832781047616605952 309027 281526 292287 -218114
832781047634818432 309039 281534 292298 -218120
832781047653030784 308976 281507 292284 -218140
832781047671243264 308943 281403 292273 -218124
832781047689455744 308806 281259 292217 -218123
832781047707668096 308572 281079 292297 -218104
832781047725880576 308287 280845 292311 -218103
832781047744093056 308036 280592 292325 -218099
832781047762305408 307757 280275 292314 -218090
832781047780517888 307464 279999 292297 -218074
832781047798730368 307102 279650 292308 -218071
832781047816942720 306846 279353 292271 -218088
832781047835155200 306483 279000 292257 -218154
832781047853367680 306246 278721 292250 -218140
832781047871580032 305988 278477 292273 -218078
832781047889792512 305802 278289 292321 -218135
832781047908004992 305637 278119 292310 -218091
832781047926217344 305500 278069 292298 -218105
832781047944429824 305407 277934 292315 -218085
832781047962642176 305409 277901 292307 -218131
832781047980854656 305501 278022 292301 -218078
832781047999067136 305519 278056 292291 -218105
832781048017279488 305601 278082 292357 -218158
832781048035491968 305646 278204 292341 -218147
832781048053704448 305753 278290 292336 -218150
832781048071916800 305999 278534 292327 -218106
832781048090129204 306190 278700 292306 -218137
832781048108340096 306348 278977 292380 -218135
832781048126551040 306446 278977 292224 -218151
832781048144761856 306630 279214 292293 -218113
832781048162972800 306817 279336 292309 -218076
832781048181183616 306913 279449 292396 -218101
832781048199394560 306954 279564 292338 -218130
832781048217605376 307070 279612 292310 -218118
832781048235816320 307166 279702 292345 -218142
832781048254027264 307177 279728 292285 -218183
832781048272238080 307161 279625 292259 -218201
832781048290449024 307116 279668 292300 -218152
832781048308659840 307188 279689 292312 -218114
832781048326870784 307185 279713 292272 -218137
832781048345081728 307191 279722 292304 -218106
832781048363292544 307198 279694 292283 -218150
832781048381503488 307234 279791 292283 -218110
832781048399714304 307307 279870 292299 -218083
832781048417925248 307433 279914 292259 -218101
832781048436136064 307552 279983 292284 -218119
832781048454347008 307706 280140 292294 -218108
832781048472557952 307870 280303 292265 -218120
832781048490768768 308144 280602 292301 -218135
832781048508979712 308270 280808 292351 -218063
832781048527190528 308440 280917 292370 -218055
832781048545401472 308509 281010 292332 -218148
832781048563612288 308657 281199 292312 -218124
832781048581823232 308892 281369 292321 -218057
832781048600034176 309029 281483 292288 -218131
832781048618244992 309057 281570 292309 -218113
832781048636455936 309109 281631 292323 -218083
832781048654666752 309024 281520 292289 -218100
832781048672877696 308977 281485 292312 -218102
832781048691088640 308842 281272 292355 -218127
832781048709299456 308598 281008 292332 -218098
832781048727510400 308320 280831 292362 -218122
832781048745721216 308052 280589 292341 -218106
832781048763932160 307739 280270 292329 -218099
832781048782142976 307455 279951 292334 -218097
832781048800353920 307114 279605 292305 -218080
832781048818564864 306794 279311 292316 -218039
832781048836775680 306488 278992 292343 -218125
832781048854986588 306209 278725 292339 -218093
832781048873198208 306011 278516 292362 -218073
832781048891409792 305764 278245 292271 -218144
832781048909621504 305607 278137 292317 -218144
832781048927833088 305531 278005 292325 -218127
832781048946044672 305436 277934 292346 -218120
832781048964256256 305311 277860 292275 -218147
832781048982467968 305356 277914 292304 -218065
832781049000679552 305579 278059 292289 -218105
832781049018891136 305618 278111 292318 -218075
832781049037102720 305600 278183 292277 -218098
832781049055314432 305747 278244 292288 -218118
832781049073526016 305957 278436 292304 -218114
832781049091737600 306048 278560 292315 -218123
832781049109949184 306176 278700 292317 -218115
832781049128160896 306329 278890 292280 -218076
832781049146372480 306482 279025 292325 -218179
832781049164584064 306642 279140 292323 -218078
832781049182795648 306754 279330 292323 -218116
832781049201007360 306909 279457 292350 -218083
832781049219218944 307018 279485 292334 -218095
832781049237430528 307032 279532 292263 -218098
832781049255642112 307031 279575 292268 -218105
832781049273853824 307073 279552 292263 -218063
832781049292065408 307078 279584 292269 -218087
832781049310276992 307052 279534 292224 -218116
832781049328488576 307007 279562 292310 -218095
832781049346700288 307074 279574 292356 -218136
832781049364911872 307068 279607 292326 -218082
832781049383123456 307154 279651 292355 -218101
832781049401335040 307201 279751 292310 -218110
832781049419546752 307300 279797 292344 -218117
832781049437758336 307400 279899 292303 -218115
832781049455969920 307572 280071 292335 -218041
832781049474181504 307658 280211 292292 -218092
832781049492393216 307804 280375 292349 -218054
832781049510604800 308128 280633 292303 -218115
832781049528816384 308231 280760 292287 -218121
832781049547027968 308414 280907 292344 -218079
832781049565239680 308583 280996 292315 -218106
832781049583451264 308656 281157 292304 -218106
832781049601662848 308725 281315 292293 -218119
832781049619874432 308897 281415 292370 -218093
832781049638086096 308964 281419 292348 -218087
832781049656297728 308870 281392 292397 -218072
832781049674509312 308766 281235 292377 -218107
832781049692721024 308562 281122 292289 -218118
832781049710932608 308356 280895 292293 -218082
832781049729144192 308186 280682 292326 -218055
832781049747355776 307896 280373 292292 -218109
832781049765567488 307569 280051 292272 -218035
832781049783779072 307297 279769 292325 -218119
832781049801990656 306895 279438 292327 -218114
832781049820202240 306667 279200 292339 -218069
832781049838413952 306374 278932 292366 -218110
832781049856625536 306085 278603 292303 -218099
832781049874837120 305860 278362 292273 -218109
832781049893048704 305620 278182 292269 -218074
832781049911260416 305481 277994 292333 -218087
832781049929472000 305344 277872 292278 -218131
832781049947683584 305288 277833 292267 -218132
832781049965895168 305418 277926 292303 -218109
832781049984106880 305371 277886 292310 -218088
832781050002318464 305396 277865 292319 -218102
832781050020530048 305506 277994 292306 -218121
832781050038741632 305658 278149 292305 -218096
832781050056953344 305778 278280 292362 -218152
832781050075164928 305930 278433 292339 -218155
832781050093376512 306078 278560 292315 -218145
832781050111588096 306252 278765 292325 -218127
832781050129799808 306405 278928 292344 -218119
832781050148011392 306558 279040 292322 -218118
832781050166222976 306694 279236 292318 -218184
832781050184434560 306844 279337 292337 -218160
832781050202646272 306972 279396 292344 -218081
832781050220857856 306962 279485 292297 -218072
832781050239069440 306998 279480 292311 -218075
832781050257281024 307047 279513 292343 -218078
832781050275492736 307018 279567 292321 -218110
832781050293704320 307030 279483 292302 -218120
832781050311915904 307009 279548 292280 -218084
832781050330127488 307061 279577 292353 -218088
832781050348339200 307056 279580 292349 -218039
832781050366550784 307118 279617 292311 -218106
832781050384762368 307085 279639 292299 -218080
832781050402973988 307177 279688 292318 -218109
832781050421186304 307249 279711 292269 -218102
832781050439398656 307329 279793 292265 -218131
832781050457611008 307474 279957 292290 -218158
832781050475823360 307749 280220 292290 -218081
832781050494035712 307791 280323 292281 -218108
832781050512248064 307996 280470 292300 -218082
832781050530460416 308192 280722 292321 -218036
832781050548672768 308235 280752 292219 -218127
832781050566884992 308432 280964 292234 -218140
832781050585097344 308644 281124 292256 -218070
832781050603309696 308771 281271 292316 -218100
832781050621522048 308852 281327 292339 -218071
832781050639734400 308928 281419 292389 -218058
832781050657946752 308775 281303 292290 -218147
832781050676159104 308687 281215 292348 -218073
832781050694371456 308498 281028 292300 -218102
832781050712583808 308293 280738 292276 -218051
832781050730796160 308044 280579 292315 -218059
832781050749008512 307688 280204 292280 -218110
832781050767220864 307380 279861 292256 -218104
832781050785433216 307073 279588 292281 -218115
832781050803645568 306781 279294 292307 -218095
832781050821857792 306503 278926 292278 -218090
832781050840070144 306173 278639 292263 -218135
832781050858282496 305893 278365 292253 -218112
832781050876494848 305608 278107 292258 -218121
832781050894707200 305423 277931 292310 -218114
832781050912919552 305283 277812 292305 -218135
832781050931131904 305202 277695 292288 -218092
832781050949344256 305103 277627 292298 -218135
832781050967556608 305159 277620 292345 -218039
832781050985768960 305136 277702 292307 -218107
832781051003981312 305245 277719 292328 -218065
832781051022193664 305338 277777 292282 -218121
832781051040406016 305460 277989 292339 -218078
832781051058618368 305590 278097 292298 -218152
832781051076830592 305763 278267 292316 -218139
832781051095042944 305900 278427 292339 -218145
832781051113255296 306122 278552 292314 -218106
832781051131467648 306231 278802 292326 -218059
832781051149680000 306421 278927 292319 -218076
832781051167892398 306596 279060 292356 -218078
832781051186103936 306706 279197 292289 -218093
832781051204315520 306776 279235 292304 -218086
832781051222527232 306845 279323 292321 -218078
832781051240738816 306888 279282 292289 -218073
832781051258950400 306906 279344 292303 -218087
832781051277161984 306908 279399 292310 -218062
832781051295373696 306939 279405 292286 -218115
832781051313585280 306974 279437 292316 -218108
832781051331796864 306931 279393 292300 -218083
832781051350008448 306963 279440 292319 -218093
832781051368220160 306956 279437 292328 -218125
832781051386431744 307069 279518 292316 -218107
832781051404643328 307049 279564 292275 -218144
832781051422854912 307231 279689 292332 -218061
832781051441066624 307373 279790 292349 -218112
832781051459278208 307480 279954 292393 -218115
832781051477489792 307579 280058 292362 -218085
832781051495701376 307757 280220 292370 -218124
832781051513913088 307896 280350 292351 -218099
832781051532124672 308149 280619 292375 -218082
832781051550336256 308283 280785 292332 -218084
832781051568547840 308487 280924 292311 -218140
832781051586759552 308569 281078 292329 -218115
832781051604971136 308751 281166 292308 -218074
832781051623182720 308776 281234 292306 -218070
832781051641394304 308781 281280 292327 -218089
832781051659606016 308790 281243 292348 -218059
832781051677817600 308641 281130 292277 -218101
832781051696029184 308543 281016 292308 -218158
832781051714240768 308434 280939 292316 -218088
832781051732452480 308244 280709 292321 -218086
832781051750664064 307928 280453 292309 -218091
832781051768875648 307644 280151 292368 -218031
832781051787087232 307308 279760 292271 -218024
832781051805298944 307013 279462 292268 -218098
832781051823510528 306746 279170 292303 -218110
832781051841722112 306504 278907 292339 -218101
832781051859933696 306200 278634 292348 -218082
832781051878145408 305950 278439 292345 -218045
832781051896356992 305762 278236 292352 -218046
832781051914568576 305632 278071 292353 -218049
832781051932780290 305519 277993 292354 -218037
832781051950989696 305426 277983 292329 -218096
832781051969199104 305443 277934 292319 -218098
832781051987408384 305473 277916 292358 -218029
832781052005617792 305542 278112 292318 -218088
832781052023827072 305626 278155 292392 -218053
832781052042036480 305698 278260 292370 -218091
832781052060245760 305867 278402 292325 -218062
832781052078455168 304727 277248 292348 -218063
832781052096664448 305386 277849 292325 -218109
