TIMESTAMP PPG0 PPG1 PPG2 AMBIENT
832780699934731392 96643 65727 86977 -421881
832780699952913152 96629 65713 86931 -421839
832780699971095040 96588 65724 86976 -421913
832780699989276800 96626 65687 86933 -421916
832780700007458688 96674 65779 86924 -421966
832780700025640448 96705 65859 86888 -421920
832780700043822336 96817 65961 86871 -421955
832780700062004096 96955 66071 86839 -421969
832780700080185984 97115 66190 86871 -421925
832780700098367744 97202 66304 86845 -421992
832780700116549632 97309 66398 86858 -421943
832780700134731392 97427 66572 86870 -421977
832780700152913152 97586 66603 86918 -421900
832780700171095040 97675 66754 86897 -421937
832780700189276800 97753 66885 86869 -421942
832780700207458688 97762 66859 86892 -421994
832780700225640448 97786 66947 86854 -421992
832780700243822336 97872 66996 86858 -421943
832780700262004096 97974 67015 86921 -421946
832780700280185984 97930 66998 86923 -421967
832780700298367744 97952 67064 86936 -421914
832780700316549632 97992 67093 86948 -421888
832780700334731392 97994 67082 86939 -421891
832780700352913152 97919 67058 86936 -421924
832780700371095040 97970 67074 86883 -421900
832780700389276800 97991 67145 86934 -421955
832780700407458688 98071 67195 86948 -421920
832780700425640448 98110 67277 86900 -421949
832780700443822336 98209 67311 86937 -421935
832780700462004096 98341 67449 86942 -421925
832780700480185984 98472 67555 86985 -421890
832780700498367744 98561 67608 86823 -421903
832780700516549632 98724 67926 86929 -421917
832780700534731392 98924 68020 86961 -421900
832780700552913152 98998 68100 86918 -421901
832780700571095040 99158 68157 86903 -421948
832780700589276800 99239 68201 86870 -421961
832780700607458688 99287 68306 86892 -421945
832780700625640448 99345 68420 86873 -421907
832780700643822336 99286 68344 86889 -421912
832780700662004096 99184 68333 86863 -422012
832780700680185998 99152 68207 86907 -421911
832780700698399872 99037 68108 86945 -421931
832780700716613760 98826 67897 86904 -421907
832780700734827648 98597 67662 86865 -421910
832780700753041536 98443 67516 86930 -421943
832780700771255296 98188 67270 86880 -421922
832780700789469184 97972 67030 86839 -421949
832780700807683072 97661 66869 86866 -421930
832780700825896960 97458 66578 86940 -421949
832780700844110848 97287 66462 86925 -421869
832780700862324736 97100 66264 86895 -421956
832780700880538624 96906 66086 86887 -421980
832780700898752384 96864 65964 86911 -421921
832780700916966272 96716 65847 86891 -421933
832780700935180160 96767 65771 87006 -421922
832780700953394048 96707 65747 86952 -421904
832780700971607936 96716 65804 86923 -421927
832780700989821824 96647 65804 86846 -422005
832780701008035584 96737 65863 86968 -421959
832780701026249472 96839 65899 86950 -421942
832780701044463360 96918 65992 86912 -421987
832780701062677248 97051 66097 86878 -421989
832780701080891136 97116 66273 86856 -421971
832780701099105024 97281 66358 86889 -421909
832780701117318912 97380 66505 86839 -421895
832780701135532672 97514 66661 86939 -421886
832780701153746560 97572 66716 86901 -421948
832780701171960448 97716 66792 86882 -421913
832780701190174336 97815 66865 86889 -421887
832780701208388224 97839 66956 86892 -421945
832780701226602112 97902 67012 86962 -421938
832780701244816000 97898 67049 86862 -421934
832780701263029760 97906 67067 86908 -421939
832780701281243648 97915 67059 86891 -421954
832780701299457536 97918 67070 86855 -421949
832780701317671424 97939 67025 86889 -421920
832780701335885312 97946 67065 86940 -421932
832780701354099200 97900 67035 86920 -421899
832780701372313088 97958 67100 86914 -421958
832780701390526848 98049 67120 86942 -421920
832780701408740736 98068 67163 86870 -421913
832780701426954624 98180 67253 86892 -421912
832780701445168496 98246 67328 86900 -421880
832780701463381632 98383 67490 86945 -421930
832780701481594752 98605 67710 86884 -422001
832780701499807872 98653 67733 86811 -421975
832780701518021120 98806 67853 86887 -421954
832780701536234240 98921 67982 86904 -421919
832780701554447360 98962 68105 86882 -421968
832780701572660480 99159 68235 86809 -421915
832780701590873600 99324 68383 86873 -421847
832780701609086720 99330 68418 86849 -421922
832780701627299968 99395 68460 86862 -421892
832780701645513088 99322 68414 86840 -421958
832780701663726208 99310 68366 86865 -421885
832780701681939328 99117 68234 86875 -421948
832780701700152448 99037 68098 86907 -421939
832780701718365568 98798 67906 86887 -421955
832780701736578816 98615 67722 86895 -421944
832780701754791936 98512 67542 86856 -421882
832780701773005056 98234 67251 86871 -421907
832780701791218176 97985 67047 86930 -421948
832780701809431296 97781 66823 86939 -421874
832780701827644416 97578 66565 86929 -421908
832780701845857664 97386 66396 86907 -421880
832780701864070784 97165 66196 86942 -421921
832780701882283904 96983 66055 86897 -421916
832780701900497024 96868 65948 86925 -421887
832780701918710144 96759 65883 86909 -421942
832780701936923392 96643 65789 86962 -421955
832780701955136512 96714 65783 86928 -421867
832780701973349632 96632 65769 86883 -421978
832780701991562752 96783 65901 86914 -421945
832780702009775872 96827 65853 86927 -421914
832780702027988992 96922 65954 86922 -421877
832780702046202240 97018 66050 86969 -421929
832780702064415360 97035 66122 86934 -421873
832780702082628480 97198 66297 86959 -421924
832780702100841600 97355 66435 86962 -421899
832780702119054720 97465 66535 86926 -421917
832780702137267840 97581 66661 86875 -421922
832780702155481088 97605 66773 86860 -421918
832780702173694208 97758 66890 86945 -421894
832780702191907328 97848 66968 86941 -421971
832780702210120476 97922 67046 86968 -421937
832780702228333568 97929 67051 86906 -421936
832780702246546688 97985 67080 86929 -421947
832780702264759808 97943 67049 86876 -421930
832780702282973056 97941 67076 86884 -421966
832780702301186176 97962 67066 86963 -421900
832780702319399296 97938 67080 86880 -421966
832780702337612416 97970 67099 86939 -421924
832780702355825536 97994 67171 86960 -421927
832780702374038656 98035 67173 86909 -421881
832780702392251904 98085 67210 86879 -421892
832780702410465024 98116 67230 86868 -421913
832780702428678144 98235 67311 86977 -421954
832780702446891264 98308 67428 86953 -421905
832780702465104384 98397 67470 86948 -421877
832780702483317504 98477 67637 86893 -421947
832780702501530752 98809 67927 86970 -421894
832780702519743872 98864 68004 86955 -421913
832780702537956992 98976 68102 86891 -421938
832780702556170112 99130 68208 86913 -421893
832780702574383232 99209 68330 86920 -421850
832780702592596352 99241 68359 86867 -421917
832780702610809600 99350 68478 86928 -421912
832780702629022720 99395 68482 86942 -421972
832780702647235840 99311 68475 86870 -421933
832780702665448960 99247 68432 86913 -421914
832780702683662080 99119 68271 86879 -421894
832780702701875328 98998 68132 86905 -421950
832780702720088448 98815 67970 86910 -421861
832780702738301568 98628 67767 86921 -421915
832780702756514688 98439 67519 86920 -421863
832780702774727808 98180 67328 86884 -421901
832780702792940928 97948 67160 86959 -421898
832780702811154176 97672 66846 86866 -421951
832780702829367296 97551 66637 86918 -421929
832780702847580416 97344 66465 86929 -421939
832780702865793536 97162 66265 86951 -421890
832780702884006656 97046 66119 86994 -421860
832780702902219776 96842 65931 86880 -421905
832780702920433024 96754 65867 86896 -421925
832780702938646144 96628 65802 86875 -421897
832780702956859264 96668 65780 86894 -421931
832780702975072384 96705 65785 86941 -421892
832780702993285504 96704 65805 86946 -421899
832780703011498740 96748 65880 86887 -421917
832780703029711488 96835 65869 86900 -421894
832780703047924224 96899 66023 86901 -421909
832780703066136832 97112 66208 86904 -421901
832780703084349568 97252 66361 86929 -421908
832780703102562176 97346 66454 86940 -421931
832780703120774912 97464 66526 86931 -421903
832780703138987520 97604 66654 86845 -421898
832780703157200256 97649 66726 86848 -421932
832780703175412992 97773 66885 86879 -421912
832780703193625600 97838 66966 86886 -421934
832780703211838336 97922 67038 86920 -421929
832780703230050944 97905 67009 86931 -421948
832780703248263680 97944 67074 86889 -421920
832780703266476288 97974 67126 86972 -421961
832780703284689024 98025 67125 86937 -421934
832780703302901760 98078 67138 86972 -421935
832780703321114368 98044 67098 86926 -421944
832780703339327104 98010 67116 86916 -421960
832780703357539712 98017 67135 86939 -421913
832780703375752448 98123 67218 86984 -421894
832780703393965056 98126 67188 86907 -421881
832780703412177792 98228 67290 86994 -421896
832780703430390528 98258 67397 86888 -421924
832780703448603136 98289 67462 86916 -421925
832780703466815872 98554 67688 86911 -421931
832780703485028480 98566 67654 86872 -421942
832780703503241216 98713 67814 86880 -421905
832780703521453824 98849 67969 86912 -421876
832780703539666560 98987 68065 86871 -421922
832780703557879296 99139 68199 86919 -421864
832780703576091904 99247 68329 86917 -421892
832780703594304640 99317 68489 86913 -421937
832780703612517248 99392 68503 86935 -421881
832780703630729984 99404 68520 86959 -421915
832780703648942592 99445 68529 86984 -421905
832780703667155328 99275 68416 86939 -421945
832780703685368064 99186 68224 86908 -421914
832780703703580672 99035 68113 86879 -421920
832780703721793408 98802 67853 86861 -421976
832780703740006016 98610 67699 86895 -421964
832780703758218752 98429 67561 86907 -421909
832780703776431360 98170 67296 86912 -421938
832780703794644024 97956 67017 86931 -421960
832780703812856832 97713 66808 86886 -421967
832780703831069696 97481 66563 86887 -421931
832780703849282560 97273 66475 86922 -421874
832780703867495552 97114 66186 86884 -421948
832780703885708416 96956 66096 86882 -421885
832780703903921280 96880 65938 86926 -421904
832780703922134144 96820 65849 86941 -421921
832780703940347136 96719 65814 86920 -421914
832780703958560000 96710 65825 86890 -421987
832780703976772864 96805 65904 86895 -421955
832780703994985728 96736 65875 86951 -421964
832780704013198720 96802 65993 86927 -421958
832780704031411584 96940 66059 86943 -421939
832780704049624448 96994 66119 86950 -421891
832780704067837312 97138 66175 86959 -421924
832780704086050304 97239 66334 86888 -421905
832780704104263168 97380 66499 86914 -421952
832780704122476032 97469 66584 86860 -421948
832780704140688896 97529 66670 86865 -421926
832780704158901760 97637 66790 86862 -421921
832780704177114752 97737 66898 86904 -421933
832780704195327616 97904 66968 86993 -421922
832780704213540480 97917 67066 86909 -421904
832780704231753344 97960 67024 86908 -421924
832780704249966336 98007 67068 86970 -421898
832780704268179200 97980 67070 86959 -421881
832780704286392064 97909 66973 86908 -421917
832780704304604928 97923 67048 86900 -421985
832780704322817920 97959 67080 86925 -421920
832780704341030784 97968 67053 86958 -421888
832780704359243648 98028 67097 86971 -421871
832780704377456512 98026 67123 86961 -421875
832780704395669504 98051 67201 86863 -421912
832780704413882368 98112 67298 86941 -421917
832780704432095232 98196 67329 86925 -421921
832780704450308096 98298 67384 86934 -421953
832780704468520960 98392 67483 86889 -421955
832780704486733952 98497 67594 86930 -421952
832780704504946816 98645 67752 86888 -421988
832780704523159680 98758 67895 86858 -421953
832780704541372544 98916 68021 86947 -421900
832780704559585536 99005 68128 86951 -421905
832780704577798466 99145 68267 86948 -421910
832780704596011648 99240 68388 86990 -421969
832780704614224768 99307 68360 86893 -421971
832780704632437888 99324 68458 86936 -421935
832780704650651136 99307 68400 86926 -421937
832780704668864256 99213 68267 86930 -421918
832780704687077376 99225 68240 86927 -421922
832780704705290496 99019 68075 86965 -421930
832780704723503616 98777 67908 86999 -421895
832780704741716736 98542 67654 86954 -421935
832780704759929984 98328 67467 86923 -421954
832780704778143104 98117 67236 86926 -421926
832780704796356224 97867 67039 86952 -421950
832780704814569344 97643 66796 86920 -421946
832780704832782464 97461 66575 86934 -421913
832780704850995584 97282 66400 86988 -421860
832780704869208832 97047 66212 86975 -421913
832780704887421952 96920 66087 86911 -421908
832780704905635072 96815 65951 86889 -421890
832780704923848192 96710 65847 86906 -421996
832780704942061312 96654 65805 86916 -421925
832780704960274432 96668 65804 86945 -421859
832780704978487680 96695 65764 86942 -421898
832780704996700800 96729 65815 86921 -421899
832780705014913920 96735 65846 86892 -421918
832780705033127040 96844 65964 86872 -421927
832780705051340160 96981 66119 86913 -421871
832780705069553408 97045 66250 86870 -421961
832780705087766528 97173 66346 86911 -421915
832780705105979648 97310 66399 86930 -421909
832780705124192768 97445 66564 86907 -421924
832780705142405888 97571 66659 86939 -421927
832780705160619008 97635 66774 86927 -421965
832780705178832256 97684 66821 86879 -421921
832780705197045376 97815 66907 86854 -421916
832780705215258496 97898 67029 86885 -421913
832780705233471616 97940 67112 86918 -421935
832780705251684736 97961 67118 86946 -421932
832780705269897856 97999 67094 86924 -421915
832780705288111104 98007 67094 86944 -421895
832780705306324224 97996 67102 86929 -421945
832780705324537344 97997 67081 86928 -421895
832780705342750446 98037 67127 86936 -421881
832780705360963584 97974 67082 86948 -421925
832780705379176704 98124 67148 86968 -421948
832780705397389824 98073 67171 86946 -421973
832780705415603072 98150 67300 86925 -421915
832780705433816192 98251 67385 86926 -421891
832780705452029312 98305 67421 86865 -421956
832780705470242432 98391 67536 86815 -421973
832780705488455552 98490 67628 86921 -421972
832780705506668672 98668 67767 86890 -421976
832780705524881920 98846 67932 86944 -421902
832780705543095040 98992 68116 86941 -421886
832780705561308160 99058 68308 86925 -421950
832780705579521280 99128 68340 86887 -421956
832780705597734400 99313 68488 86929 -421921
832780705615947520 99366 68494 86942 -421914
832780705634160768 99358 68442 86895 -421949
832780705652373888 99365 68446 86940 -421893
832780705670587008 99297 68400 86912 -421918
832780705688800128 99158 68270 86934 -421977
832780705707013248 98971 68123 86944 -421943
832780705725226496 98735 67870 86879 -421953
832780705743439616 98528 67731 86910 -421983
832780705761652736 98318 67503 86931 -421919
832780705779865856 98122 67264 86917 -421933
832780705798078976 97934 67036 86960 -421890
832780705816292096 97661 66842 86931 -421912
832780705834505344 97474 66601 86942 -421898
832780705852718464 97304 66404 86950 -421913
832780705870931584 97098 66164 86952 -421910
832780705889144704 96951 66020 86953 -421941
832780705907357824 96817 65924 86935 -421947
832780705925570944 96765 65815 86938 -421942
832780705943784192 96636 65754 86894 -421972
832780705961997312 96780 65891 86963 -421928
832780705980210432 96764 65793 86936 -421908
832780705998423552 96738 65821 86902 -421961
832780706016636672 96884 65931 86946 -421865
832780706034849920 96877 65954 86914 -421931
832780706053063040 96970 66088 86863 -421985
832780706071276160 97174 66164 86920 -421955
832780706089489280 97279 66346 86934 -421935
832780706107702434 97377 66432 86879 -421920
832780706125915392 97527 66606 86914 -421905
832780706144128384 97590 66716 86874 -421988
832780706162341504 97700 66830 86916 -421958
832780706180554496 97782 66914 86897 -421925
832780706198767488 97876 66949 86914 -421891
832780706216980608 97915 67016 86875 -421905
832780706235193600 97966 67119 86913 -421930
832780706253406592 97938 67149 86939 -421943
832780706271619712 97955 67102 86843 -421894
832780706289832704 97998 67140 86896 -421932
832780706308045696 97996 67132 86905 -421927
832780706326258816 97958 67074 86894 -421935
832780706344471808 98025 67099 86923 -421909
832780706362684800 98075 67143 86930 -421901
832780706380897920 98141 67197 86936 -421897
832780706399110912 98156 67273 86923 -421895
832780706417323904 98178 67280 86885 -421942
832780706435537024 98268 67332 86902 -421948
832780706453750016 98378 67448 86913 -421965
832780706471963136 98492 67584 86963 -421989
832780706490176128 98588 67741 86907 -421960
832780706508389120 98687 67860 86913 -421928
832780706526602240 98894 67961 86929 -421925
832780706544815232 98971 68097 86933 -421925
832780706563028224 99095 68242 86944 -421966
832780706581241344 99199 68345 86900 -421921
832780706599454336 99362 68485 86919 -421921
832780706617667328 99421 68479 86908 -421939
832780706635880448 99389 68495 86867 -421911
832780706654093440 99258 68380 86865 -421998
832780706672306432 99214 68288 86850 -421981
832780706690519552 99119 68202 86859 -421922
832780706708732544 98971 68067 86885 -421927
832780706726945536 98772 67945 86928 -421903
832780706745158656 98536 67644 86916 -421961
832780706763371648 98360 67436 86906 -421927
832780706781584640 98097 67273 86935 -421953
832780706799797760 97912 66987 87001 -421878
832780706818010752 97653 66710 86964 -421968
832780706836223744 97470 66569 86985 -421870
832780706854436864 97232 66370 86874 -421969
832780706872649856 97085 66207 86952 -421964
832780706890862978 96912 66019 86878 -421998
832780706909074560 96865 65918 86957 -421947
832780706927286144 96750 65834 86919 -421922
832780706945497856 96684 65765 86905 -421913
832780706963709440 96666 65764 86914 -421961
832780706981921024 96694 65833 86903 -421966
832780707000132608 96683 65806 86856 -421938
832780707018344320 96787 65948 86908 -421898
832780707036555904 96887 65984 86839 -421918
832780707054767488 97031 66176 86891 -421915
832780707072979072 97145 66250 86910 -421918
832780707091190784 97288 66410 86865 -421899
832780707109402368 97453 66564 86963 -421866
832780707127613952 97539 66711 86969 -421863
832780707145825536 97637 66725 86946 -421929
832780707164037248 97760 66777 86919 -421964
832780707182248832 97825 66919 86923 -421964
832780707200460416 97848 66983 86950 -421941
832780707218672000 97880 66997 86928 -421952
832780707236883712 97944 67056 86945 -421918
832780707255095296 97993 67114 86934 -421876
832780707273306880 98016 67107 86897 -421930
832780707291518464 97952 67074 86877 -421959
832780707309730176 97978 67128 86886 -421953
832780707327941760 98061 67070 86908 -421915
832780707346153344 98048 67112 86942 -421922
832780707364364928 98050 67115 86888 -421959
832780707382576640 98070 67190 86865 -421956
832780707400788224 98097 67154 86882 -421911
832780707418999808 98119 67268 86885 -421941
832780707437211392 98243 67325 86925 -421956
832780707455423104 98302 67462 86924 -421967
832780707473634688 98441 67606 86895 -421988
832780707491846272 98580 67676 86883 -421962
832780707510057856 98696 67836 86945 -421955
832780707528269568 98849 68020 86931 -421934
832780707546481152 98984 68160 86882 -421876
832780707564692736 99119 68269 86905 -421927
832780707582904320 99265 68393 86939 -421907
832780707601116032 99325 68398 86902 -421971
832780707619327616 99377 68536 86928 -421927
832780707637539200 99335 68413 86890 -421986
832780707655750784 99335 68418 86882 -421968
832780707673962486 99287 68395 86942 -421943
832780707692175104 99138 68229 86861 -421975
832780707710387712 99015 68062 86909 -421963
832780707728600320 98805 67850 86886 -421993
832780707746813056 98605 67698 86956 -421969
832780707765025664 98339 67469 86907 -421962
832780707783238272 98093 67271 86940 -421987
832780707801450880 97877 67033 86950 -421946
832780707819663488 97718 66780 86973 -421963
832780707837876224 97461 66544 86913 -421988
832780707856088832 97263 66364 86948 -421921
832780707874301440 97079 66211 86926 -421907
832780707892514048 96932 66100 86971 -421935
832780707910726656 96823 66014 86984 -421926
832780707928939392 96731 65906 86980 -421887
832780707947152000 96695 65781 86991 -421916
832780707965364608 96711 65731 86977 -421938
832780707983577216 96744 65811 86941 -421925
832780708001789824 96728 65822 86841 -421958
832780708020002560 96804 65900 86874 -421976
832780708038215168 96939 66073 86874 -421933
832780708056427776 97037 66134 86878 -421898
832780708074640384 97192 66267 86933 -421895
832780708092852992 97252 66387 86855 -421965
832780708111065728 97384 66535 86924 -421966
832780708129278336 97539 66705 87001 -421942
832780708147490944 97605 66757 86922 -421929
832780708165703552 97719 66824 86880 -421890
832780708183916160 97873 66933 86924 -421879
832780708202128896 97887 66989 86891 -421869
832780708220341504 97922 67023 86929 -421914
832780708238554112 97933 67031 86900 -421913
832780708256766720 98028 67103 86955 -421913
832780708274979328 97975 67086 86896 -422018
832780708293192064 97948 67107 86874 -421970
832780708311404672 98035 67194 86950 -421908
832780708329617280 98103 67094 86957 -421880
832780708347829888 98079 67159 86955 -421895
832780708366042496 98106 67155 86939 -421987
832780708384255232 98115 67163 86945 -421934
832780708402467840 98119 67205 86901 -421942
832780708420680448 98203 67294 86939 -421938
832780708438893104 98363 67399 86977 -421864
832780708457106176 98389 67512 86970 -421890
832780708475319296 98528 67613 86926 -421963
832780708493532416 98656 67729 86902 -421956
832780708511745664 98814 67908 86930 -421876
832780708529958784 99091 68171 86888 -421941
832780708548171904 99160 68226 86884 -421897
832780708566385024 99230 68268 86902 -421937
832780708584598144 99301 68377 86941 -421950
832780708602811264 99378 68455 86924 -421983
832780708621024512 99467 68532 86978 -421931
832780708639237632 99396 68552 86960 -421936
832780708657450752 99299 68507 86889 -421939
832780708675663872 99236 68347 86955 -421939
832780708693876992 99092 68242 86926 -421978
832780708712090112 99017 68076 86953 -421884
832780708730303360 98778 67849 86911 -421907
832780708748516480 98594 67675 86931 -421909
832780708766729600 98302 67387 86872 -421946
832780708784942720 98103 67281 87001 -421905
832780708803155840 97887 67033 86954 -421934
832780708821368960 97686 66800 86935 -421916
832780708839582208 97443 66504 86916 -421900
832780708857795328 97281 66353 86961 -421883
832780708876008448 97058 66164 86884 -421942
832780708894221568 96943 66020 86895 -421916
832780708912434688 96847 65966 86925 -421916
832780708930647936 96826 65868 86918 -421947
832780708948861056 96751 65785 86906 -421922
832780708967074176 96697 65811 86941 -421898
832780708985287296 96721 65790 86908 -421901
832780709003500416 96821 65869 86891 -421943
832780709021713536 96909 65965 86952 -421888
832780709039926784 96964 66113 86973 -421907
832780709058139904 97110 66203 86958 -421951
832780709076353024 97184 66279 86941 -421918
832780709094566144 97308 66516 86963 -421873
832780709112779264 97429 66602 86975 -421880
832780709130992384 97572 66722 86989 -421901
832780709149205632 97673 66794 86934 -421875
832780709167418752 97751 66837 86893 -421950
832780709185631872 97860 66928 86843 -421904
832780709203845084 97867 66950 86868 -421944
832780709222058240 97916 67059 86927 -421894
832780709240271360 97947 67068 86924 -421913
832780709258484480 97972 67082 86951 -421960
832780709276697728 98026 67097 86924 -421939
832780709294910848 97948 67044 86854 -421960
832780709313123968 98004 67111 86897 -421937
832780709331337088 98022 67112 86891 -421914
832780709349550208 98055 67176 86894 -422000
832780709367763328 98071 67153 86923 -421956
832780709385976576 98052 67189 86912 -421943
832780709404189696 98167 67257 86899 -421926
832780709422402816 98197 67324 86911 -421943
832780709440615936 98255 67374 86829 -421962
832780709458829056 98408 67477 86897 -421938
832780709477042176 98490 67629 86930 -421922
832780709495255424 98704 67831 86943 -421914
832780709513468544 98826 67965 86900 -421938
832780709531681664 98956 68089 86890 -421935
832780709549894784 99082 68209 86894 -421919
832780709568107904 99197 68353 86897 -421995
832780709586321024 99250 68370 86902 -421970
832780709604534272 99382 68506 86912 -421934
832780709622747392 99436 68535 86877 -421980
832780709640960512 99415 68558 86896 -421944
832780709659173632 99407 68511 86925 -421933
832780709677386752 99292 68408 86911 -421958
832780709695600000 99105 68222 86909 -421970
832780709713813120 98936 68099 86920 -421880
832780709732026240 98758 67847 86887 -421879
832780709750239360 98525 67624 86877 -421956
832780709768452480 98289 67424 86883 -421925
832780709786665600 98096 67167 86851 -421951
832780709804878848 97789 66946 86865 -421960
832780709823091968 97603 66693 86873 -421948
832780709841305088 97351 66455 86905 -421996
832780709859518208 97120 66212 86876 -422030
832780709877731328 97023 66182 86918 -421979
832780709895944448 96865 66003 86914 -421992
832780709914157696 96804 65867 86859 -421963
832780709932370816 96732 65799 86884 -421954
832780709950583936 96629 65770 86844 -421970
832780709968797056 96660 65798 86920 -421945
832780709987010206 96823 65921 86912 -421937
832780710005222784 96786 65912 86937 -421958
832780710023435392 96850 65992 86900 -421903
832780710041648000 96972 66067 86902 -421939
832780710059860608 97052 66179 86916 -421999
832780710078073216 97180 66287 86887 -421936
832780710096285824 97296 66363 86893 -421975
832780710114498432 97475 66504 86919 -421897
832780710132710912 97561 66673 86937 -421937
832780710150923520 97634 66793 86891 -421951
832780710169136128 97770 66896 86911 -421935
832780710187348736 97817 66981 86904 -421971
832780710205561344 97862 67006 86947 -421931
832780710223773952 97898 67034 86857 -421950
832780710241986560 97980 67021 86842 -421935
832780710260199168 98012 67079 86878 -421933
832780710278411776 98055 67177 86931 -421928
832780710296624384 98080 67162 86939 -421947
832780710314836992 98092 67128 86874 -421945
832780710333049600 98038 67099 86883 -421931
832780710351262080 98002 67097 86865 -421979
832780710369474688 98037 67102 86884 -421992
832780710387687296 98156 67200 86903 -421971
832780710405899904 98206 67287 86930 -421959
832780710424112512 98208 67386 86900 -421947
832780710442325120 98339 67440 86877 -421930
832780710460537728 98436 67500 86880 -421944
832780710478750336 98521 67629 86858 -421932
832780710496962944 98731 67948 86900 -421972
832780710515175552 98847 68009 86905 -421969
832780710533388160 99003 68106 86928 -421918
832780710551600768 99101 68234 86951 -421968
832780710569813248 99206 68273 86950 -421919
832780710588025856 99345 68461 86964 -421942
832780710606238464 99358 68510 86934 -421980
832780710624451072 99446 68546 86924 -421942
832780710642663680 99413 68489 86904 -422007
832780710660876288 99407 68413 86924 -422021
832780710679088896 99260 68312 86832 -421998
832780710697301504 99156 68203 86905 -421954
832780710715514112 98973 67973 86913 -421971
832780710733726720 98701 67827 86886 -421975
832780710751939296 98490 67620 86891 -421984
832780710770152320 98286 67384 86841 -421978
832780710788365312 98081 67177 86872 -421999
832780710806578304 97813 66921 86877 -421978
832780710824791168 97591 66684 86907 -421971
832780710843004160 97385 66517 86908 -421995
832780710861217152 97232 66247 86831 -421981
832780710879430144 97053 66122 86931 -421964
832780710897643136 96900 65950 86883 -422035
832780710915856000 96756 65849 86852 -422026
832780710934068992 96759 65878 86936 -421935
832780710952281984 96688 65822 86907 -421943
832780710970494976 96751 65833 86927 -421888
832780710988707840 96723 65870 86896 -421934
832780711006920832 96752 65848 86846 -421989
832780711025133824 96885 65949 86922 -422026
832780711043346816 96956 66062 86883 -421972
832780711061559808 97056 66180 86910 -421980
832780711079772672 97192 66274 86899 -421971
832780711097985664 97332 66435 86862 -421979
832780711116198656 97432 66539 86890 -421953
832780711134411648 97589 66666 86901 -421978
832780711152624640 97678 66755 86883 -421922
832780711170837504 97747 66899 86869 -421920
832780711189050496 97871 66934 86893 -421909
832780711207263488 97956 66947 86853 -421908
832780711225476480 98034 67029 86853 -421953
832780711243689472 98003 67061 86829 -421987
832780711261902336 97998 67111 86870 -421955
832780711280115328 97989 67077 86925 -421935
832780711298328320 98004 67118 86968 -421945
832780711316541312 98009 67141 86938 -421907
832780711334754176 98073 67175 86927 -421921
832780711352967168 98109 67244 86939 -421998
832780711371180160 98098 67231 86884 -421958
832780711389393152 98156 67292 86922 -421968
832780711407606144 98179 67267 86923 -421985
832780711425819008 98224 67355 86918 -421942
832780711444032000 98306 67419 86879 -421967
832780711462244992 98611 67683 86880 -421947
832780711480457984 98645 67739 86857 -421964
832780711498670976 98727 67875 86880 -422010
832780711516883840 98872 67933 86908 -421965
832780711535096790 98958 68035 86892 -421943
832780711553309184 99069 68191 86918 -421941
832780711571521536 99243 68347 86935 -421959
832780711589734016 99300 68398 86859 -421985
832780711607946368 99426 68488 86873 -421964
832780711626158848 99419 68604 86941 -421971
832780711644371200 99406 68526 86913 -421941
832780711662583680 99305 68449 86883 -421959
832780711680796032 99221 68301 86908 -421992
832780711699008512 99085 68152 86888 -421976
832780711717220864 98953 68000 86922 -421925
832780711735433344 98715 67777 86900 -421951
832780711753645696 98590 67589 86941 -421961
832780711771858176 98301 67370 86924 -421941
832780711790070528 98094 67090 86937 -421947
832780711808283008 97803 66870 86880 -421933
832780711826495360 97586 66702 86871 -421914
832780711844707840 97355 66524 86905 -421910
832780711862920192 97203 66287 86903 -421916
832780711881132672 97019 66091 86907 -421924
832780711899345024 96916 66016 86923 -421903
832780711917557504 96823 65953 86954 -421892
832780711935769856 96759 65920 86948 -421922
832780711953982336 96725 65815 86931 -421930
832780711972194688 96841 65969 86955 -421914
832780711990407168 96844 65902 86901 -421981
832780712008619520 96841 65898 86934 -422007
832780712026832000 96897 66004 86952 -421912
832780712045044352 97030 66145 86987 -421880
832780712063256832 97138 66230 86937 -421938
832780712081469184 97293 66318 86935 -421911
832780712099681664 97398 66395 86917 -421963
832780712117894016 97508 66607 86930 -421933
832780712136106496 97678 66690 86946 -421973
832780712154318848 97792 66902 86924 -421916
832780712172531328 97802 66896 86961 -421916
832780712190743680 97874 66924 86903 -421959
832780712208956160 97967 66956 86948 -421926
832780712227168512 98012 67067 86945 -421987
832780712245380992 98030 67080 86855 -421938
832780712263593344 98021 67115 86904 -421982
832780712281805824 98050 67113 86846 -421988
832780712300018260 98065 67172 86867 -421922
832780712318231424 98037 67187 86855 -421988
832780712336444544 98069 67173 86865 -421950
832780712354657664 98041 67144 86909 -421960
832780712372870912 98052 67232 86957 -421912
832780712391084032 98140 67205 86947 -421961
832780712409297152 98224 67269 86922 -421980
832780712427510272 98246 67366 86872 -421946
832780712445723392 98333 67457 86900 -421949
832780712463936512 98453 67511 86871 -421948
832780712482149760 98729 67780 86902 -421971
832780712500362880 98826 67879 86890 -421973
832780712518576000 98829 67928 86872 -422000
832780712536789120 99006 68050 86888 -421975
832780712555002240 99111 68144 86849 -421981
832780712573215360 99211 68286 86805 -422016
832780712591428608 99347 68446 86908 -421968
832780712609641728 99391 68511 86896 -421956
832780712627854848 99448 68555 86905 -421966
832780712646067968 99404 68492 86913 -421954
832780712664281088 99379 68445 86928 -421970
832780712682494208 99259 68322 86930 -421933
832780712700707456 99141 68168 86933 -421916
832780712718920576 98890 68017 86870 -421981
832780712737133696 98719 67865 86883 -421989
832780712755346816 98486 67598 86894 -421947
832780712773559936 98286 67403 86911 -421948
832780712791773184 98000 67095 86800 -421960
832780712809986304 97806 66953 86906 -421955
832780712828199424 97547 66703 86871 -421942
832780712846412544 97373 66514 86863 -421933
832780712864625664 97236 66351 86853 -421910
832780712882838784 97058 66128 86903 -421962
832780712901052032 96967 65946 86933 -421955
832780712919265152 96873 65913 86925 -421971
832780712937478272 96769 65873 86950 -421971
832780712955691392 96698 65861 86867 -421956
832780712973904512 96700 65874 86809 -421938
832780712992117632 96723 65845 86848 -421980
832780713010330880 96871 65967 86874 -421970
832780713028544000 97020 66072 86913 -421948
832780713046757120 97043 66152 86902 -421980
832780713064970240 97163 66276 86884 -421992
832780713083183360 97258 66370 86899 -421946
832780713101396480 97348 66437 86833 -421984
832780713119609600 97482 66618 86882 -421987
832780713137822848 97598 66700 86871 -421997
832780713156035968 97713 66824 86900 -422019
832780713174249088 97850 66939 86906 -421970
832780713192462208 97876 66997 86897 -421992
832780713210675328 98033 67078 86935 -421949
832780713228888448 98031 67130 86919 -421954
832780713247101696 98114 67113 86928 -421948
832780713265314816 98052 67172 86908 -421989
832780713283527936 97978 67138 86896 -421981
832780713301741056 98048 67163 86903 -421963
832780713319954176 98009 67153 86912 -421935
832780713338167296 98039 67151 86953 -421973
832780713356380544 98053 67127 86901 -421977
832780713374593664 98106 67179 86818 -422028
832780713392806784 98188 67229 86877 -422000
832780713411019904 98234 67247 86870 -421958
832780713429233024 98327 67420 86951 -421909
832780713447446144 98369 67411 86919 -421920
832780713465659392 98503 67607 86925 -421953
832780713483872512 98622 67710 86924 -421959
832780713502085632 98764 67896 86866 -421967
832780713520298752 99051 68138 86923 -421929
832780713538511872 99051 68183 86892 -421949
832780713556725120 99158 68308 86941 -421930
832780713574938240 99274 68410 86889 -421975
832780713593151360 99438 68531 86956 -421968
832780713611364480 99467 68544 86919 -421962
832780713629577600 99466 68574 86903 -421960
832780713647790720 99471 68568 86908 -421948
832780713666003968 99391 68394 86894 -421938
832780713684217088 99275 68346 86924 -421913
832780713702430208 99138 68203 86929 -421854
832780713720643328 98983 68011 86971 -421920
832780713738856448 98724 67806 86928 -422003
832780713757069568 98472 67544 86879 -421985
832780713775282816 98323 67375 86931 -421959
832780713793495936 98063 67136 86899 -421941
832780713811709056 97796 66885 86900 -421997
832780713829922220 97547 66673 86878 -421990
832780713848135040 97411 66477 86902 -421908
832780713866347904 97229 66295 86903 -421928
832780713884560896 97053 66070 86874 -421935
832780713902773760 96916 65973 86859 -421948
832780713920986752 96740 65899 86848 -421984
832780713939199616 96786 65887 86939 -421913
832780713957412608 96864 65942 86903 -421948
832780713975625472 96757 65855 86890 -421998
832780713993838464 96742 65895 86865 -421996
832780714012051328 96805 65909 86862 -421983
832780714030264320 96915 66010 86874 -421907
832780714048477184 97025 66157 86989 -421939
832780714066690176 97125 66281 86889 -421946
832780714084903040 97193 66344 86842 -421947
832780714103116032 97377 66445 86853 -421967
832780714121328896 97448 66552 86823 -422006
832780714139541888 97639 66704 86853 -421966
832780714157754752 97720 66811 86885 -421943
832780714175967616 97805 66848 86908 -421989
832780714194180608 97872 66967 86916 -421982
832780714212393472 97994 67111 86902 -421958
832780714230606464 98022 67074 86886 -421971
832780714248819328 98024 67101 86857 -421972
832780714267032320 98037 67161 86891 -422015
832780714285245184 98043 67171 86903 -421979
832780714303458176 98073 67171 86946 -421986
832780714321671040 98110 67141 86911 -422015
832780714339884032 98068 67087 86850 -421994
832780714358096896 98153 67160 86929 -421942
832780714376309888 98136 67233 86961 -421939
832780714394522752 98206 67217 86924 -421964
832780714412735744 98243 67290 86946 -421980
832780714430948608 98373 67401 86965 -421989
832780714449161600 98448 67461 86873 -421937
832780714467374464 98719 67749 86912 -421939
832780714485587456 98721 67800 86899 -421948
832780714503800320 98792 67861 86905 -421936
832780714522013184 98904 67992 86908 -421953
832780714540226176 99064 68160 86979 -421909
832780714558439040 99185 68240 86951 -421946
832780714576652032 99306 68388 86927 -421953
832780714594865044 99333 68420 86960 -422036
832780714613077632 99462 68491 86920 -421946
832780714631290240 99407 68540 86892 -421988
832780714649502848 99358 68575 86911 -422000
832780714667715584 99365 68473 86977 -421977
832780714685928192 99202 68309 86854 -422002
832780714704140800 99083 68177 86836 -421947
832780714722353408 98869 67940 86871 -421930
832780714740566016 98653 67780 86849 -421985
832780714758778752 98455 67495 86751 -422020
832780714776991360 98190 67335 86822 -422001
832780714795203968 97993 67045 86875 -422000
832780714813416576 97753 66855 86884 -421960
832780714831629184 97524 66621 86907 -421952
832780714849841920 97287 66441 86887 -421953
832780714868054528 97103 66214 86952 -421985
832780714886267136 96949 66117 86903 -421967
832780714904479744 96876 65925 86927 -421938
832780714922692352 96783 65868 86883 -421982
832780714940905088 96740 65828 86827 -421949
832780714959117696 96685 65786 86832 -421973
832780714977330304 96769 65897 86865 -422050
832780714995542912 96832 65934 86900 -421965
832780715013755520 96793 65977 86846 -421995
832780715031968256 96928 66036 86940 -422000
832780715050180864 97022 66153 86878 -422016
832780715068393472 97177 66307 86940 -421981
832780715086606080 97288 66378 86903 -422006
832780715104818688 97388 66512 86845 -421995
832780715123031424 97469 66608 86870 -421958
832780715141244032 97628 66727 86890 -421984
832780715159456640 97713 66829 86828 -422006
832780715177669248 97821 66929 86798 -422026
832780715195881856 97846 67017 86861 -421983
832780715214094592 97875 67022 86843 -422045
832780715232307200 97934 67116 86893 -422000
832780715250519808 98065 67114 86893 -421989
832780715268732416 98064 67162 86914 -421973
832780715286945024 98095 67194 86885 -421969
832780715305157760 98038 67190 86855 -421956
832780715323370368 98035 67219 86861 -421966
832780715341582976 98067 67181 86894 -421948
832780715359795662 98157 67266 86903 -421928
832780715378008064 98069 67213 86877 -421965
832780715396220416 98135 67245 86859 -422050
832780715414432896 98197 67332 86899 -421958
832780715432645248 98251 67393 86863 -421959
832780715450857728 98378 67440 86849 -422023
832780715469070080 98475 67602 86865 -421942
832780715487282560 98698 67755 86956 -421931
832780715505494912 98791 67868 86946 -421933
832780715523707392 98971 68043 86908 -421969
832780715541919744 99053 68133 86904 -421939
832780715560132224 99181 68233 86894 -421937
832780715578344576 99338 68378 86926 -421953
832780715596557056 99402 68443 86865 -422003
832780715614769408 99424 68588 86909 -421961
832780715632981888 99481 68515 86903 -421966
832780715651194240 99438 68501 86924 -421911
832780715669406720 99416 68469 86988 -421944
832780715687619072 99288 68347 86957 -421917
832780715705831552 99067 68169 86912 -421961
832780715724043904 98919 68022 86897 -421948
832780715742256384 98676 67780 86859 -421979
832780715760468736 98363 67543 86937 -421952
832780715778681216 98214 67277 86883 -421922
832780715796893568 97984 67083 86886 -421962
832780715815106048 97804 66845 86912 -421983
832780715833318400 97544 66604 86929 -421955
832780715851530880 97308 66395 86928 -421987
832780715869743232 97162 66272 86954 -422030
832780715887955712 97020 66073 86907 -422027
832780715906168064 96855 65990 86879 -422050
832780715924380544 96763 65851 86937 -422024
832780715942592896 96693 65811 86896 -422033
832780715960805376 96749 65845 86956 -421970
832780715979017728 96742 65863 86987 -421929
832780715997230208 96765 65952 86873 -421952
832780716015442560 96901 65937 86901 -421985
832780716033655040 96941 66058 86893 -421984
832780716051867392 97079 66220 86940 -421996
832780716070079872 97134 66322 86900 -422046
832780716088292224 97315 66417 86923 -421917
832780716106504704 97488 66556 86943 -421960
832780716124717124 97554 66672 86911 -421930
832780716142931072 97638 66743 86909 -421962
832780716161144960 97838 66887 86947 -421961
832780716179358848 97839 66890 86844 -421990
832780716197572736 98009 67074 86961 -421896
832780716215786496 97970 67098 86928 -421941
832780716234000384 97930 67066 86880 -422023
832780716252214272 97998 67107 86869 -421964
832780716270428160 98043 67116 86890 -421916
832780716288642048 98011 67195 86902 -421987
832780716306855936 98038 67146 86899 -421972
832780716325069824 98087 67169 86923 -421948
832780716343283584 98036 67171 86893 -422011
832780716361497472 98103 67255 86952 -421995
832780716379711360 98067 67279 86852 -421971
832780716397925248 98127 67292 86897 -421976
832780716416139136 98180 67341 86863 -421939
832780716434353024 98281 67436 86818 -422010
832780716452566784 98448 67535 86913 -421964
832780716470780672 98473 67560 86835 -422035
832780716488994560 98672 67714 86875 -421976
832780716507208448 98816 67960 86981 -421924
832780716525422336 98931 68045 86922 -421968
832780716543636224 99035 68149 86900 -421986
832780716561850112 99194 68308 86935 -421963
832780716580063872 99335 68412 86863 -421981
832780716598277760 99450 68531 86891 -421932
832780716616491648 99491 68520 86884 -421960
832780716634705536 99486 68534 86874 -421997
832780716652919424 99510 68507 86908 -421921
832780716671133312 99332 68434 86917 -422019
832780716689347200 99206 68254 86897 -421976
832780716707560960 99111 68111 86912 -422018
832780716725774848 98928 67939 86902 -421976
832780716743988736 98656 67835 86862 -421969
832780716762202624 98402 67556 86883 -421977
832780716780416512 98153 67309 86896 -422015
832780716798630400 97933 67073 86878 -422005
832780716816844288 97707 66831 86808 -422028
832780716835058048 97482 66591 86820 -421973
832780716853271936 97302 66375 86829 -422018
832780716871485824 97129 66165 86809 -421989
832780716889699622 96988 66104 86889 -421947
832780716907913472 96831 65976 86823 -421981
832780716926127360 96763 65839 86850 -421981
832780716944341248 96740 65782 86926 -422007
832780716962555136 96884 65847 86920 -422011
832780716980768896 96806 65854 86843 -421973
832780716998982784 96872 65964 86959 -421936
832780717017196672 96907 65980 86913 -421944
832780717035410560 96944 66057 86920 -421998
832780717053624448 97059 66117 86857 -421975
832780717071838336 97237 66290 86947 -421981
832780717090052224 97300 66390 86900 -422040
832780717108265984 97447 66546 86878 -421915
832780717126479872 97575 66706 86855 -421963
832780717144693760 97725 66794 86865 -421909
832780717162907648 97776 66858 86928 -421998
832780717181121536 97875 66963 86905 -421954
832780717199335424 97942 67027 86894 -421999
832780717217549184 97969 67080 86878 -422004
832780717235763072 97983 67097 86854 -421983
832780717253976960 98021 67098 86850 -421973
832780717272190848 98031 67104 86841 -422016
832780717290404736 98073 67165 86785 -421945
832780717308618624 98102 67217 86905 -421922
832780717326832512 98104 67194 86907 -421971
832780717345046272 98113 67169 86899 -421965
832780717363260160 98186 67205 86834 -421987
832780717381474048 98174 67195 86837 -422017
832780717399687936 98213 67267 86856 -421958
832780717417901824 98307 67376 86894 -421941
832780717436115712 98315 67372 86869 -422020
832780717454329600 98433 67546 86871 -422022
832780717472543360 98565 67657 86849 -421970
832780717490757248 98707 67773 86910 -421960
832780717508971136 98834 67938 86823 -421994
832780717527185024 98987 68120 86902 -421948
832780717545398912 99109 68174 86880 -421959
832780717563612800 99221 68251 86838 -421993
832780717581826688 99368 68394 86828 -421997
832780717600040448 99516 68547 86849 -421946
832780717618254336 99477 68535 86826 -422004
832780717636468224 99510 68520 86839 -421986
832780717654682120 99443 68512 86868 -421988
832780717672896000 99315 68485 86892 -421942
832780717691109888 99226 68355 86921 -421958
832780717709323776 99047 68222 86922 -421969
832780717727537664 98935 68024 86946 -421978
832780717745751424 98669 67843 86926 -421945
832780717763965312 98413 67548 86871 -421925
832780717782179200 98225 67273 86882 -421948
832780717800393088 97941 67064 86906 -421993
832780717818606976 97768 66873 86888 -421929
832780717836820864 97489 66682 86846 -421965
832780717855034752 97267 66448 86883 -421968
832780717873248512 97112 66240 86896 -421994
832780717891462400 96990 66122 86891 -421969
832780717909676288 96857 66049 86853 -422009
832780717927890176 96806 65939 86862 -421965
832780717946104064 96764 65887 86886 -421964
832780717964317952 96724 65801 86896 -422012
832780717982531712 96739 65882 86883 -421938
832780718000745600 96773 65889 86887 -421941
832780718018959488 96861 66015 86891 -421964
832780718037173376 96958 66031 86849 -421916
832780718055387264 97072 66168 86845 -421968
832780718073601152 97184 66270 86878 -421973
832780718091815040 97322 66417 86862 -421922
832780718110028800 97474 66522 86820 -421980
832780718128242688 97589 66694 86897 -422001
832780718146456576 97669 66807 86894 -422003
832780718164670464 97822 66923 86957 -421934
832780718182884352 97890 67030 86861 -421941
832780718201098240 98004 67082 86875 -421973
832780718219312128 98043 67090 86888 -421977
832780718237525888 98068 67106 86810 -421988
832780718255739776 98110 67212 86923 -421989
832780718273953664 98135 67164 86902 -421962
832780718292167552 98044 67195 86873 -421992
832780718310381440 98096 67183 86908 -421987
832780718328595328 98034 67201 86927 -421961
832780718346809216 98095 67173 86883 -421977
832780718365022976 98114 67168 86866 -422005
832780718383236864 98145 67262 86921 -421932
832780718401450752 98194 67283 86849 -422030
832780718419664618 98291 67409 86903 -421926
832780718437879168 98395 67541 86942 -421963
832780718456093696 98467 67524 86904 -422007
832780718474308224 98549 67699 86880 -421959
832780718492522752 98714 67769 86853 -422002
832780718510737280 98849 67939 86811 -421962
832780718528951808 99013 68134 86882 -421999
832780718547166336 99124 68187 86883 -421988
832780718565380864 99221 68308 86897 -422001
832780718583595392 99335 68401 86854 -421990
832780718601809920 99429 68553 86878 -421968
832780718620024448 99520 68623 86910 -421938
832780718638238976 99453 68586 86815 -421970
832780718656453504 99435 68560 86858 -421946
832780718674667904 99411 68442 86893 -421960
832780718692882432 99227 68261 86910 -421956
832780718711096960 99092 68181 86920 -421970
832780718729311488 98848 67927 86862 -421994
832780718747526016 98651 67753 86910 -421989
832780718765740544 98411 67482 86895 -421962
832780718783955072 98194 67228 86845 -421953
832780718802169600 97963 66983 86947 -421960
832780718820384128 97718 66789 86945 -421966
832780718838598656 97492 66567 86836 -421964
832780718856813184 97315 66385 86887 -421967
832780718875027712 97177 66236 86916 -421936
832780718893242240 97036 66149 86945 -421918
832780718911456768 96922 65983 86891 -421984
832780718929671296 96881 65937 86905 -421943
832780718947885824 96788 65936 86914 -421918
832780718966100352 96772 65808 86896 -421956
832780718984314880 96769 65854 86909 -421917
832780719002529408 96858 65888 86869 -421933
832780719020743936 97017 66125 86953 -421888
832780719038958464 97103 66215 86935 -421924
832780719057172992 97164 66211 86867 -421909
832780719075387520 97305 66374 86945 -421908
832780719093602048 97398 66503 86888 -421918
832780719111816576 97554 66685 86958 -421880
832780719130031104 97670 66742 86954 -421963
832780719148245504 97758 66830 86950 -421935
832780719166460032 97892 66940 86958 -421976
832780719184674584 97865 66979 86872 -421953
832780719202887680 97959 67103 86943 -421915
832780719221100800 98082 67176 86956 -421860
832780719239314048 98070 67136 86884 -421967
832780719257527168 98109 67185 86928 -421910
832780719275740416 98098 67192 86895 -421934
832780719293953536 98177 67152 86886 -421961
832780719312166784 98156 67237 86962 -421953
832780719330379904 98073 67207 86889 -421989
832780719348593152 98094 67207 86943 -422005
832780719366806272 98092 67258 86884 -421969
832780719385019520 98097 67212 86868 -422004
832780719403232640 98187 67347 86928 -421903
832780719421445888 98350 67411 86953 -421953
832780719439659008 98365 67490 86861 -421975
832780719457872256 98491 67626 86908 -421936
832780719476085376 98636 67753 86907 -421949
832780719494298496 98761 67791 86897 -421920
832780719512511744 98922 67988 86889 -421881
832780719530724864 99043 68156 86901 -421966
832780719548938112 99201 68301 86939 -421956
832780719567151232 99271 68446 86964 -421961
832780719585364480 99357 68517 86931 -422005
832780719603577600 99470 68602 86891 -421968
832780719621790848 99552 68657 86951 -421950
832780719640003968 99560 68620 86926 -421973
832780719658217216 99506 68531 86891 -421960
832780719676430336 99410 68496 86891 -421965
832780719694643584 99185 68370 86926 -421959
832780719712856704 99027 68206 86875 -421930
832780719731069952 98860 67979 86909 -421973
832780719749283072 98736 67800 87006 -421862
832780719767496192 98454 67520 86895 -421945
832780719785709440 98200 67258 86933 -421960
832780719803922560 97963 67023 86863 -422006
832780719822135808 97711 66771 86879 -421975
832780719840348928 97513 66620 86930 -421953
832780719858562176 97336 66361 86962 -421922
832780719876775296 97136 66205 86890 -421966
832780719894988544 97036 66118 86887 -422021
832780719913201664 96947 66027 86885 -421944
832780719931414948 96836 65942 86889 -421990
832780719949628032 96823 65887 86929 -421975
832780719967841152 96749 65825 86891 -421947
832780719986054400 96787 65835 86905 -421990
832780720004267520 96800 65931 86852 -421977
832780720022480768 96921 65977 86853 -421972
832780720040693888 96976 66152 86943 -421983
832780720058907136 97142 66289 86925 -421966
832780720077120256 97266 66306 86851 -421980
832780720095333504 97415 66443 86919 -421968
832780720113546624 97538 66547 86882 -421960
832780720131759872 97600 66669 86843 -422015
832780720149972992 97690 66784 86861 -422002
832780720168186240 97834 66911 86854 -421959
832780720186399360 97956 66991 86861 -421960
832780720204612480 98063 67110 86875 -421960
832780720222825728 98031 67132 86878 -422006
832780720241038848 98113 67193 86859 -422022
832780720259252096 98047 67181 86922 -421992
832780720277465216 98151 67204 86934 -421907
832780720295678464 98109 67206 86924 -421899
832780720313891584 98127 67210 86942 -421937
832780720332104832 98093 67212 86858 -421982
832780720350317952 98177 67233 86874 -421961
832780720368531200 98139 67257 86902 -421971
832780720386744320 98247 67304 86894 -421958
832780720404957440 98223 67333 86931 -421993
832780720423170688 98301 67363 86900 -421990
832780720441383808 98447 67493 86951 -421982
832780720459597056 98492 67584 86909 -421936
832780720477810176 98649 67681 86894 -421969
832780720496023424 98809 67878 86970 -421977
832780720514236544 98896 67934 86948 -422013
832780720532449792 99103 68153 86980 -421955
832780720550662912 99148 68232 86922 -421962
832780720568876160 99322 68405 86897 -421938
832780720587089280 99382 68471 86890 -421916
832780720605302528 99513 68581 86947 -421935
832780720623515648 99522 68551 86907 -421998
832780720641728768 99539 68650 86911 -421950
832780720659942016 99514 68544 86947 -421972
832780720678155136 99348 68488 86953 -421987
832780720696368460 99197 68294 86890 -422026
832780720714581632 99065 68224 86928 -421934
832780720732794752 98852 67964 86903 -421968
832780720751007872 98669 67770 86944 -421931
832780720769221120 98413 67511 86946 -421952
832780720787434240 98181 67237 86922 -421997
832780720805647360 97964 66995 86920 -421920
832780720823860480 97735 66831 86911 -421935
832780720842073600 97499 66677 86978 -421903
832780720860286720 97298 66409 86909 -421878
832780720878499968 97182 66281 86963 -421835
832780720896713088 97045 66139 86948 -421875
832780720914926208 96867 65984 86926 -421953
832780720933139328 96830 65953 86914 -421951
832780720951352448 96807 65885 86887 -421934
832780720969565568 96783 65875 86850 -421935
832780720987778816 96853 65908 86901 -421910
832780721005991936 96863 65984 86914 -421945
832780721024205056 96958 66011 86892 -421975
832780721042418176 97096 66162 86941 -421939
832780721060631296 97171 66174 86902 -421953
832780721078844416 97292 66331 86958 -421948
832780721097057664 97412 66501 86928 -421947
832780721115270784 97538 66655 86894 -421985
832780721133483904 97627 66753 86955 -421951
832780721151697024 97792 66881 86880 -421922
832780721169910144 97910 66997 86877 -421953
832780721188123392 97998 67100 86937 -421920
832780721206336512 98027 67129 86924 -421970
832780721224549632 98030 67185 86913 -421996
832780721242762752 98097 67274 86922 -421904
832780721260975872 98095 67253 86935 -421925
832780721279188992 98158 67280 86926 -421936
832780721297402240 98144 67283 86902 -421970
832780721315615360 98106 67280 86929 -421966
832780721333828480 98115 67256 86858 -421952
832780721352041600 98223 67297 86914 -421939
832780721370254720 98218 67319 86873 -421978
832780721388467840 98200 67265 86872 -421955
832780721406681088 98298 67306 86882 -421917
832780721424894208 98305 67441 86853 -421927
832780721443107328 98461 67573 86911 -421962
832780721461320440 98572 67667 86959 -421932
832780721479533568 98670 67783 86931 -421944
832780721497746688 98832 67900 86913 -421943
832780721515959808 98942 68003 86912 -421930
832780721534173056 99113 68208 86916 -421950
832780721552386176 99235 68254 86875 -421953
832780721570599296 99317 68429 86937 -421962
832780721588812416 99447 68484 86924 -421951
832780721607025536 99567 68614 86964 -421893
832780721625238656 99622 68582 86883 -421962
832780721643451904 99583 68581 86897 -421949
832780721661665024 99501 68578 86936 -421942
832780721679878144 99428 68500 86974 -421911
832780721698091264 99329 68397 86971 -421841
832780721716304384 99113 68140 86916 -421911
832780721734517504 98855 67921 86925 -421941
832780721752730752 98578 67725 86875 -421935
832780721770943872 98402 67514 86903 -421964
832780721789156992 98203 67261 86941 -421911
832780721807370112 97908 67031 86960 -421925
832780721825583232 97689 66891 86867 -421939
832780721843796352 97532 66670 86908 -421881
832780721862009600 97283 66419 86920 -421973
832780721880222720 97160 66220 86890 -421926
832780721898435840 97009 66043 86940 -421926
832780721916648960 96900 65991 86909 -421968
832780721934862080 96772 65875 86878 -421983
832780721953075328 96834 65890 86885 -421931
832780721971288448 96808 65897 86912 -421954
832780721989501568 96865 65934 86900 -421928
832780722007714688 96884 66000 86946 -421929
832780722025927808 97063 66125 86960 -421896
832780722044140928 97119 66131 86944 -421944
832780722062354176 97192 66291 86923 -421937
832780722080567296 97361 66465 86971 -421875
832780722098780416 97462 66552 86920 -421896
832780722116993536 97597 66680 86933 -421922
832780722135206656 97701 66770 86853 -421959
832780722153419776 97846 66960 86944 -421925
832780722171633024 97854 67040 86921 -421983
832780722189846144 97974 67032 86892 -421964
832780722208059264 98052 67153 86975 -421994
832780722226272420 98100 67190 86944 -421948
832780722244486272 98197 67215 86960 -421953
832780722262700160 98141 67256 86980 -421966
832780722280914048 98163 67214 86928 -421947
832780722299127936 98213 67222 86965 -421911
832780722317341696 98138 67210 86941 -421910
832780722335555584 98198 67247 86931 -421931
832780722353769472 98175 67284 86997 -421969
832780722371983360 98178 67306 86933 -421947
832780722390197248 98317 67368 86930 -421936
832780722408411136 98287 67376 86923 -421891
832780722426625024 98344 67497 86901 -421965
832780722444838784 98499 67572 86920 -421945
832780722463052672 98559 67640 86958 -421933
832780722481266560 98837 67949 86942 -421932
832780722499480448 98926 68015 86919 -421918
832780722517694336 99060 68137 86941 -421870
832780722535908224 99112 68216 86922 -421907
832780722554121984 99171 68306 86868 -421915
832780722572335872 99366 68480 86975 -421886
832780722590549760 99435 68594 86944 -421919
832780722608763648 99504 68603 86909 -421956
832780722626977536 99638 68681 86974 -421917
832780722645191424 99604 68674 86938 -421905
832780722663405312 99522 68547 86971 -421954
832780722681619072 99454 68478 86918 -421925
832780722699832960 99304 68335 86916 -421905
832780722718046848 99048 68107 86933 -421978
832780722736260736 98813 67908 86902 -421954
832780722754474624 98644 67751 86957 -421926
832780722772688512 98481 67548 86931 -421983
832780722790902400 98186 67250 86938 -421978
832780722809116160 97974 67008 86878 -421976
832780722827330048 97763 66748 86907 -421936
832780722845543936 97464 66534 86876 -421949
832780722863757824 97252 66363 86859 -421962
832780722881971712 97142 66206 86895 -421984
832780722900185600 96981 66068 86910 -421959
832780722918399488 96895 65967 86919 -421931
832780722936613248 96885 65874 86933 -421919
832780722954827136 96833 65903 86948 -421935
832780722973041024 96890 65968 86997 -421908
832780722991254918 96827 65935 86877 -421934
832780723009468032 96889 65944 86943 -421907
832780723027681152 97065 66094 86985 -421921
832780723045894272 97130 66161 86944 -421915
832780723064107520 97215 66329 86960 -421892
832780723082320640 97352 66511 86981 -421892
832780723100533760 97533 66636 86992 -421857
832780723118746880 97672 66717 86986 -421926
832780723136960000 97779 66835 86982 -421912
832780723155173120 97860 66939 86954 -421917
832780723173386368 97968 67034 86963 -421945
832780723191599488 98102 67237 87001 -421936
832780723209812608 98092 67145 86967 -421901
832780723228025728 98156 67194 86905 -421902
832780723246238848 98103 67253 86919 -421931
832780723264451968 98149 67252 86924 -421895
832780723282665216 98145 67257 86947 -421937
832780723300878336 98127 67252 86869 -421946
832780723319091456 98119 67262 86896 -421917
832780723337304576 98186 67299 86905 -421898
832780723355517696 98200 67306 86924 -421935
832780723373730816 98252 67348 86913 -421920
832780723391944064 98281 67403 86924 -421885
832780723410157184 98243 67418 86947 -421915
832780723428370304 98355 67552 86996 -421949
832780723446583424 98503 67589 86985 -421972
832780723464796544 98616 67696 86927 -421932
832780723483009792 98771 67779 86971 -421914
832780723501222912 98856 67891 86918 -421933
832780723519436032 98939 68116 86916 -421972
832780723537649152 99076 68208 86933 -421965
832780723555862272 99301 68321 86942 -421887
832780723574075392 99385 68509 86923 -421885
832780723592288640 99502 68650 86998 -421892
832780723610501760 99610 68715 86952 -421903
832780723628714880 99616 68706 86883 -421905
832780723646928000 99560 68695 86867 -421939
832780723665141120 99478 68620 86924 -421969
832780723683354240 99317 68401 86923 -421925
832780723701567488 99255 68275 86916 -421935
832780723719780608 99043 68154 86890 -421951
832780723737993728 98808 67920 86923 -421937
832780723756206848 98597 67780 86978 -421891
832780723774420040 98399 67463 86988 -421916
832780723792633728 98153 67224 86990 -421918
832780723810847360 97891 66920 86907 -421939
832780723829060864 97649 66751 86917 -421968
832780723847274496 97484 66647 86962 -421931
832780723865488000 97291 66430 86958 -421978
832780723883701632 97098 66255 86926 -421946
832780723901915136 96936 66129 86912 -421954
832780723920128768 96894 65994 86917 -421967
832780723938342400 96814 65921 86943 -421916
832780723956555904 96799 65878 86894 -421932
832780723974769536 96804 65888 86857 -421960
832780723992983040 96889 65908 86905 -421969
832780724011196672 97019 66059 86901 -422004
832780724029410304 97051 66114 86855 -421947
832780724047623808 97114 66223 86902 -421963
832780724065837440 97252 66314 86891 -421968
832780724084050944 97364 66490 86955 -421918
832780724102264576 97493 66565 86925 -421937
832780724120478080 97550 66644 86894 -421975
832780724138691712 97761 66838 86904 -421946
832780724156905344 97827 66956 86937 -421916
832780724175118848 97892 67021 86926 -421961
832780724193332480 98038 67089 86971 -421904
832780724211545984 98109 67142 86934 -421929
832780724229759616 98077 67180 86861 -421971
832780724247973248 98139 67243 86896 -421892
832780724266186752 98128 67260 86909 -421908
832780724284400384 98138 67268 86938 -421942
832780724302613888 98189 67298 86918 -421919
832780724320827520 98163 67198 86903 -421915
832780724339041024 98219 67286 86906 -421973
832780724357254656 98253 67309 86909 -421977
832780724375468288 98265 67335 86905 -421935
832780724393681792 98321 67365 86937 -421903
832780724411895424 98369 67415 86920 -421907
832780724430108928 98494 67520 86923 -421927
832780724448322560 98473 67611 86911 -421930
832780724466536192 98646 67798 86895 -421933
832780724484749696 98729 67876 86906 -421886
832780724502963328 98882 67981 86893 -421911
832780724521176832 99210 68289 86946 -421917
832780724539390332 99243 68344 86973 -421939
832780724557603712 99311 68447 86927 -421935
832780724575817088 99450 68567 86995 -421914
832780724594030592 99525 68601 86974 -421949
832780724612243968 99601 68665 87002 -421919
832780724630457472 99582 68756 86971 -421881
832780724648670848 99583 68647 86924 -421930
832780724666884352 99469 68524 86894 -422002
832780724685097728 99392 68431 86951 -421935
832780724703311232 99242 68318 86920 -421908
832780724721524608 98990 68132 86927 -421966
832780724739737984 98738 67868 86909 -421962
832780724757951488 98510 67670 86916 -421926
832780724776164864 98351 67522 86951 -421894
832780724794378368 98143 67266 86910 -421946
832780724812591744 97917 67039 86934 -421941
832780724830805248 97677 66748 86889 -421910
832780724849018624 97498 66577 86884 -421929
832780724867232128 97298 66324 86878 -421920
832780724885445504 97111 66270 86925 -421968
832780724903658880 97021 66121 86971 -421959
832780724921872384 96920 65980 86931 -421961
832780724940085760 96892 65944 86967 -421904
832780724958299264 96838 65876 86927 -421886
832780724976512640 96837 65927 86924 -421930
832780724994726144 96887 65938 86905 -421958
832780725012939520 96967 66050 86944 -421946
832780725031153024 97049 66078 86886 -421950
832780725049366400 97156 66192 86880 -421926
832780725067579776 97308 66382 86947 -421881
832780725085793280 97364 66536 86956 -421902
832780725104006656 97534 66650 86920 -421892
832780725122220160 97619 66758 86883 -421908
832780725140433536 97714 66868 86900 -421913
832780725158647040 97870 66966 86931 -421901
832780725176860416 97990 67067 86941 -421947
832780725195073920 98013 67063 86896 -421924
832780725213287296 98079 67159 86910 -421915
832780725231500672 98206 67218 86920 -421891
832780725249714176 98217 67305 86934 -421936
832780725267927552 98138 67308 86900 -421953
832780725286141056 98207 67290 86930 -421961
832780725304354518 98233 67279 86993 -421898
832780725322566912 98185 67241 86874 -421954
832780725340779264 98184 67281 86889 -421972
832780725358991744 98175 67297 86896 -421976
832780725377204096 98267 67370 86911 -421932
832780725395416576 98275 67305 86903 -421928
832780725413628928 98340 67390 86870 -421961
832780725431841408 98411 67485 86889 -421970
832780725450053760 98475 67602 86906 -421947
832780725468266240 98601 67731 86895 -421965
832780725486478592 98803 67868 86968 -421973
832780725504691072 98900 68000 86885 -421982
832780725522903424 98994 68118 86896 -421972
832780725541115904 99156 68279 86920 -421975
832780725559328256 99320 68373 86922 -421978
832780725577540736 99442 68510 86937 -421956
832780725595753088 99505 68600 86883 -421960
832780725613965568 99587 68730 86880 -421919
832780725632177920 99618 68686 86882 -421926
832780725650390400 99516 68635 86948 -421977
832780725668602752 99461 68583 86914 -422013
832780725686815232 99411 68445 86923 -421948
832780725705027584 99222 68296 86937 -421960
832780725723240064 99018 68114 86910 -421950
832780725741452416 98804 67898 86888 -421973
832780725759664896 98559 67610 86873 -421979
832780725777877248 98329 67523 86935 -421924
832780725796089728 98111 67239 86957 -421925
832780725814302080 97826 66924 86871 -421977
832780725832514560 97600 66733 86906 -421913
832780725850726912 97362 66458 86880 -421973
832780725868939392 97214 66356 86908 -422010
832780725887151744 97091 66179 86880 -421976
832780725905364224 96920 65987 86797 -421998
832780725923576576 96874 65912 86856 -421981
832780725941789056 96764 65918 86843 -421962
832780725960001408 96748 65893 86859 -421976
832780725978213888 96788 65900 86875 -421995
832780725996426240 96930 66081 86867 -422002
832780726014638720 96986 66015 86837 -421955
832780726032851072 97027 66118 86878 -421980
832780726051063552 97149 66242 86892 -421970
832780726069275980 97244 66366 86908 -421960
832780726087489152 97348 66479 86895 -421972
832780726105702272 97492 66648 86929 -421963
832780726123915392 97651 66780 86921 -421932
832780726142128640 97700 66803 86837 -421966
832780726160341760 97848 66983 86901 -422001
832780726178554880 97961 67004 86876 -421989
832780726196768000 97951 67082 86895 -422001
832780726214981120 98086 67182 86875 -421950
832780726233194240 98058 67205 86870 -422006
832780726251407488 98170 67243 86947 -421908
832780726269620608 98214 67286 86926 -421908
832780726287833728 98262 67264 86893 -421921
832780726306046848 98220 67260 86888 -421939
832780726324259968 98113 67250 86865 -422015
832780726342473088 98155 67246 86884 -421985
832780726360686336 98168 67278 86861 -421984
832780726378899456 98186 67348 86874 -421983
832780726397112576 98212 67382 86919 -421959
832780726415325696 98332 67407 86879 -421968
832780726433538816 98488 67556 86948 -421915
832780726451751936 98549 67643 86913 -421953
832780726469965184 98676 67679 86919 -421924
832780726488178304 98784 67829 86889 -421992
832780726506391424 98911 67893 86855 -421995
832780726524604544 99075 68090 86874 -421977
832780726542817664 99192 68243 86928 -421973
832780726561030912 99296 68384 86892 -421982
832780726579244032 99454 68513 86899 -421911
832780726597457152 99530 68602 86953 -421925
832780726615670272 99636 68609 86900 -421899
832780726633883392 99614 68654 86916 -421930
832780726652096512 99597 68635 86925 -421917
832780726670309760 99464 68550 86941 -421948
832780726688522880 99340 68452 86990 -421956
832780726706736000 99170 68260 86927 -421950
832780726724949120 98940 68064 86916 -421947
832780726743162240 98755 67867 86926 -421909
832780726761375360 98584 67686 86997 -421897
832780726779588608 98362 67404 86923 -421998
832780726797801728 98095 67153 86939 -422002
832780726816014848 97863 66938 86961 -421907
832780726834227960 97661 66748 86929 -421935
832780726852441088 97386 66472 86935 -421986
832780726870654208 97230 66359 86937 -421976
832780726888867328 97100 66181 86837 -422002
832780726907080576 96989 66046 86944 -421948
832780726925293696 96893 65964 86976 -421964
832780726943506816 96807 65906 86892 -421996
832780726961719936 96795 65874 86897 -421967
832780726979933056 96840 65942 86838 -422004
832780726998146176 96884 65991 86865 -421968
832780727016359424 96924 66010 86869 -421971
832780727034572544 97034 66111 86856 -421882
832780727052785664 97164 66203 86935 -421909
832780727070998784 97276 66343 86970 -421903
832780727089211904 97427 66529 86923 -421964
832780727107425024 97585 66690 86950 -421967
832780727125638272 97694 66755 86875 -422004
832780727143851392 97781 66861 86891 -421986
832780727162064512 97923 66964 86917 -421958
832780727180277632 97996 67045 86914 -421946
832780727198490752 98059 67116 86919 -421938
832780727216704000 98138 67140 86934 -421941
832780727234917120 98138 67201 86886 -421912
832780727253130240 98154 67289 86933 -421881
832780727271343360 98198 67311 86959 -421912
832780727289556480 98213 67291 86899 -421984
832780727307769600 98171 67309 86861 -421977
832780727325982848 98164 67249 86901 -421950
832780727344195968 98185 67262 86887 -421911
832780727362409088 98190 67284 86870 -421943
832780727380622208 98217 67324 86880 -421958
832780727398835328 98325 67369 86856 -421964
832780727417048448 98378 67416 86914 -421983
832780727435261696 98452 67511 86876 -421902
832780727453474816 98575 67606 86913 -421921
832780727471687936 98802 67901 86928 -421975
832780727489901056 98852 67952 86910 -421908
832780727508114176 98977 68066 86903 -421924
832780727526327424 99056 68159 86941 -421962
832780727544540544 99225 68293 86913 -421972
832780727562753664 99332 68397 86916 -421955
832780727580966784 99458 68411 86869 -421951
832780727599179904 99565 68584 86930 -421939
832780727617393090 99580 68684 86870 -421951
832780727635606272 99640 68727 87004 -421926
832780727653819392 99555 68594 86919 -421987
832780727672032512 99430 68526 86883 -421939
832780727690245760 99355 68417 86971 -421905
832780727708458880 99227 68306 86962 -421921
832780727726672000 98981 68108 86926 -421910
832780727744885120 98767 67871 86877 -421920
832780727763098240 98608 67683 86982 -421922
832780727781311360 98303 67443 86924 -421993
832780727799524608 98043 67164 86894 -421956
832780727817737728 97831 66973 86967 -421952
832780727835950848 97631 66732 86929 -421902
832780727854163968 97386 66506 86891 -421918
832780727872377088 97287 66298 86902 -421948
832780727890590208 97085 66179 86911 -421973
832780727908803456 96956 66038 86908 -421919
832780727927016576 96875 66003 86957 -421970
832780727945229696 96876 65913 86901 -421952
832780727963442816 96852 65946 86933 -421959
832780727981655936 96796 65910 86896 -421921
832780727999869056 96857 65958 86868 -421936
832780728018082304 96994 66089 86904 -421920
832780728036295424 97038 66143 86874 -421920
832780728054508544 97184 66224 86886 -421933
832780728072721664 97285 66392 86917 -421958
832780728090934784 97369 66483 86902 -421996
832780728109148032 97524 66651 86925 -421947
832780728127361152 97674 66771 86930 -421961
832780728145574272 97793 66908 86965 -421986
832780728163787392 97942 67010 86916 -421960
832780728182000512 97991 67106 86912 -421946
832780728200213632 98096 67202 86922 -421919
832780728218426880 98121 67200 86935 -421969
832780728236640000 98116 67232 86947 -421925
832780728254853120 98172 67295 86900 -421922
832780728273066240 98151 67235 86896 -421982
832780728291279360 98216 67317 86937 -421933
832780728309492480 98221 67320 86861 -421938
832780728327705728 98136 67324 86901 -421949
832780728345918848 98156 67308 86883 -421981
832780728364131968 98183 67268 86888 -421970
832780728382345070 98260 67323 86877 -421914
832780728400557440 98277 67367 86823 -421995
832780728418769792 98372 67477 86874 -421948
832780728436982272 98443 67506 86907 -421963
832780728455194624 98538 67666 86942 -421928
832780728473407104 98679 67803 86911 -421929
832780728491619456 98735 67836 86889 -421972
832780728509831936 98904 68018 86967 -421971
832780728528044288 99018 68089 86853 -421987
832780728546256768 99179 68276 86863 -421977
832780728564469120 99338 68443 86925 -421952
832780728582681600 99502 68623 86950 -421937
832780728600893952 99553 68657 86945 -421984
832780728619106432 99603 68673 86939 -421975
832780728637318784 99597 68759 86952 -421953
832780728655531264 99538 68688 86959 -421935
832780728673743616 99468 68559 86914 -421944
832780728691956096 99357 68415 86910 -421925
832780728710168448 99209 68355 86954 -421914
832780728728380928 98954 68098 86911 -421949
832780728746593280 98788 67849 86926 -421963
832780728764805760 98583 67625 86951 -421899
832780728783018112 98344 67424 86986 -421868
832780728801230592 97982 67103 86888 -421910
832780728819442944 97802 66915 86897 -421978
832780728837655424 97619 66698 86871 -421933
832780728855867776 97427 66490 86906 -421960
832780728874080256 97210 66295 86916 -421965
832780728892292608 97115 66181 86990 -421942
832780728910505088 97081 66087 86962 -421913
832780728928717440 96990 66038 86984 -421902
832780728946929920 96866 65914 86896 -421935
832780728965142272 96875 65997 86976 -421905
832780728983354752 96892 65980 86911 -421905
832780729001567104 97019 66134 86937 -421905
832780729019779584 97087 66189 86935 -421921
832780729037991936 97143 66230 86934 -421929
832780729056204416 97236 66295 86901 -421934
832780729074416768 97363 66409 86917 -421900
832780729092629248 97447 66570 86885 -421951
832780729110841600 97618 66691 86969 -421916
832780729129054080 97766 66828 86925 -421905
832780729147266532 97893 66963 86936 -421896
832780729165479040 97984 67012 86933 -421900
832780729183691520 98090 67136 86922 -421922
832780729201904000 98152 67212 86914 -421932
832780729220116352 98169 67222 86874 -421912
832780729238328832 98195 67272 86873 -421910
832780729256541312 98223 67247 86948 -421907
832780729274753792 98232 67333 86942 -421952
832780729292966144 98179 67305 86899 -421943
832780729311178624 98225 67281 86913 -421917
832780729329391104 98206 67247 86914 -421893
832780729347603584 98222 67266 86976 -421927
832780729365815936 98264 67324 86960 -421895
832780729384028416 98349 67374 86913 -421926
832780729402240896 98326 67418 86913 -421963
832780729420453376 98412 67489 86924 -421888
832780729438665728 98508 67584 86948 -421910
832780729456878208 98665 67695 87016 -421902
832780729475090688 98736 67849 86973 -421970
832780729493303168 98888 67918 86923 -421907
832780729511515520 99163 68216 86924 -421883
832780729529728000 99179 68247 86947 -421942
832780729547940480 99306 68336 86901 -421915
832780729566152960 99427 68454 86884 -421933
832780729584365312 99517 68544 86934 -421927
832780729602577792 99636 68651 86954 -421914
832780729620790272 99672 68745 86937 -421883
832780729639002752 99706 68736 86993 -421866
832780729657215104 99615 68706 86960 -421878
832780729675427584 99493 68516 86943 -421881
832780729693640064 99358 68379 86916 -421916
832780729711852544 99167 68225 86940 -421931
832780729730064896 98974 67997 86931 -421909
832780729748277376 98840 67826 86863 -421943
832780729766489856 98598 67622 86896 -421916
832780729784702336 98322 67322 86913 -421955
832780729802914688 98121 67149 86910 -421927
832780729821127168 97855 66895 86929 -421907
832780729839339648 97644 66647 86925 -421916
832780729857552128 97423 66505 86938 -421937
832780729875764480 97261 66316 86916 -421939
832780729893976960 97168 66193 86954 -421930
832780729912189440 96998 66122 86931 -421979
832780729930401920 96940 66042 86923 -421936
832780729948614278 96867 65970 86935 -421928
832780729966826624 96893 65971 86923 -421932
832780729985038976 96942 65968 86900 -421908
832780730003251456 96960 66024 86894 -421915
832780730021463808 97008 66109 86948 -421908
832780730039676288 97078 66171 86937 -421898
832780730057888640 97223 66316 86929 -421868
832780730076101120 97320 66478 86986 -421910
832780730094313472 97466 66601 86946 -421904
832780730112525952 97646 66758 86980 -421920
832780730130738304 97844 66841 86952 -421908
832780730148950784 97910 66956 86962 -421916
832780730167163136 98001 67024 86996 -421939
832780730185375616 98047 67172 86971 -421913
832780730203587968 98094 67236 86916 -421932
832780730221800448 98146 67220 86943 -421886
832780730240012800 98187 67230 86930 -421947
832780730258225280 98220 67270 86913 -421891
832780730276437632 98256 67397 86958 -421902
832780730294650112 98220 67312 86893 -421932
832780730312862464 98152 67262 86886 -421942
832780730331074944 98257 67292 86934 -421913
832780730349287296 98297 67309 86901 -421919
832780730367499776 98283 67360 86887 -421896
832780730385712128 98320 67406 86890 -421898
832780730403924608 98420 67446 86930 -421948
832780730422136960 98451 67530 86896 -421890
832780730440349440 98537 67682 86865 -421893
832780730458561792 98575 67671 86869 -421952
832780730476774272 98851 67940 86907 -421964
832780730494986624 98881 67989 86920 -421936
832780730513199104 99017 68065 86905 -421947
832780730531411456 99209 68204 86957 -421904
832780730549623936 99280 68395 86939 -421950
832780730567836288 99449 68488 86964 -421924
832780730586048768 99534 68606 86937 -421927
832780730604261120 99640 68672 86945 -421925
832780730622473600 99692 68740 86926 -421931
832780730640685952 99658 68751 86952 -421918
832780730658898432 99562 68667 86924 -421969
832780730677110784 99442 68609 86986 -421894
832780730695323264 99311 68411 86998 -421912
832780730713535740 99168 68242 86971 -421931
832780730731747712 99021 68082 86941 -421937
832780730749959680 98811 67849 86918 -421908
832780730768171520 98599 67593 86989 -421917
832780730786383488 98286 67428 86945 -421908
832780730804595456 98051 67131 86970 -421898
832780730822807424 97791 66865 86943 -421907
832780730841019264 97610 66675 86894 -421911
832780730859231232 97424 66461 86933 -421887
832780730877443200 97233 66326 86931 -421895
832780730895655168 97128 66158 86961 -421829
832780730913867008 96981 66096 86845 -421909
832780730932078976 96968 66055 86925 -421938
832780730950290944 96964 65975 86947 -421883
832780730968502912 96878 65966 86988 -421914
832780730986714752 96992 66051 86924 -421894
832780731004926720 96974 66052 86976 -421930
832780731023138688 97074 66109 86922 -421978
832780731041350656 97124 66238 86950 -421937
832780731059562496 97267 66308 86885 -421912
832780731077774464 97385 66473 86946 -421903
832780731095986432 97571 66608 86959 -421907
832780731114198400 97687 66755 86939 -421907
832780731132410240 97808 66844 86953 -421892
832780731150622208 97891 66927 86918 -421895
832780731168834176 97944 67042 86942 -421980
832780731187046144 98094 67181 86959 -421928
832780731205257984 98063 67223 86950 -421924
832780731223469952 98171 67261 86953 -421908
832780731241681920 98197 67226 86913 -421912
832780731259893888 98237 67263 86935 -421937
832780731278105728 98289 67304 86963 -421912
832780731296317696 98213 67268 86961 -421914
832780731314529664 98224 67226 86878 -421921
832780731332741632 98271 67284 86943 -421911
832780731350953472 98322 67352 86955 -421893
832780731369165440 98320 67323 86916 -421914
832780731387377408 98349 67433 86921 -421936
832780731405589376 98400 67466 86967 -421893
832780731423801216 98428 67461 86986 -421898
832780731442013184 98519 67518 86868 -421956
832780731460225152 98618 67676 86911 -421932
832780731478437120 98752 67847 86964 -421944
832780731496648980 99039 68175 86997 -421963
832780731514861824 99088 68211 86971 -421932
832780731533074688 99174 68307 86980 -421932
832780731551287680 99348 68439 86974 -421918
832780731569500544 99400 68586 86996 -421954
832780731587713536 99481 68589 86908 -421958
832780731605926400 99645 68716 86935 -421939
832780731624139392 99650 68697 86862 -421910
832780731642352256 99594 68700 86887 -421964
832780731660565248 99494 68529 86846 -421948
832780731678778112 99369 68549 86911 -421932
832780731696991104 99320 68394 86907 -421892
832780731715203968 99148 68245 86906 -421898
832780731733416960 98949 68070 86963 -421933
832780731751629824 98748 67768 86917 -421924
832780731769842816 98480 67510 86955 -421963
832780731788055680 98260 67313 86930 -421939
832780731806268672 98016 67138 86922 -421917
832780731824481536 97776 66841 86899 -421914
832780731842694400 97600 66607 86890 -421929
832780731860907392 97350 66461 86871 -421939
832780731879120256 97155 66253 86802 -422003
832780731897333248 97102 66129 86900 -421971
832780731915546112 96952 66085 86953 -421961
832780731933759104 96888 66021 86910 -421917
832780731951971968 96890 65940 86885 -421865
832780731970184960 96859 65952 86900 -421879
832780731988397824 96887 65972 86920 -421967
832780732006610816 97047 66113 86903 -421973
832780732024823680 97077 66144 86900 -422007
832780732043036672 97144 66265 86961 -421944
832780732061249536 97241 66293 86937 -422003
832780732079462528 97377 66465 86975 -421973
832780732097675392 97489 66563 86918 -421937
832780732115888384 97623 66695 86943 -421987
832780732134101248 97710 66835 86925 -421961
832780732152314240 97859 67010 86953 -421955
832780732170527104 97935 67029 86887 -421956
832780732188739968 98054 67159 86919 -421938
832780732206952960 98070 67185 86892 -421894
832780732225165824 98114 67201 86962 -421918
832780732243378816 98228 67296 86967 -421888
832780732261591806 98182 67301 86905 -421912
832780732279803520 98247 67305 86978 -421932
832780732298015232 98223 67306 86939 -421950
832780732316227072 98188 67285 86891 -421939
832780732334438784 98310 67311 86947 -421875
832780732352650624 98236 67323 86930 -421933
832780732370862336 98312 67396 86977 -421885
832780732389074048 98288 67396 86924 -421911
832780732407285888 98338 67471 86968 -421931
832780732425497600 98438 67519 86939 -421933
832780732443709312 98528 67590 86945 -421909
832780732461921152 98673 67698 86956 -421881
832780732480132864 98817 67877 87029 -421912
832780732498344704 98925 68028 86984 -421914
832780732516556416 99168 68263 86920 -421924
832780732534768128 99192 68298 86928 -421913
832780732552979968 99334 68421 86954 -421930
832780732571191680 99408 68534 86887 -421914
832780732589403520 99515 68671 86939 -421892
832780732607615232 99621 68749 86918 -421965
832780732625826944 99744 68755 86960 -421949
832780732644038784 99605 68696 86912 -421928
832780732662250496 99619 68623 86954 -421949
832780732680462336 99445 68516 86895 -421921
832780732698674048 99354 68459 86948 -421898
832780732716885760 99128 68194 86934 -421979
832780732735097600 98874 68047 86925 -421967
832780732753309312 98668 67820 86841 -421951
832780732771521024 98448 67527 86920 -421948
832780732789732864 98206 67309 86918 -421933
832780732807944576 97983 67117 86882 -421956
832780732826156416 97776 66860 86946 -421902
832780732844368128 97578 66617 86893 -421943
832780732862579840 97389 66458 86940 -421951
832780732880791680 97229 66249 86931 -421938
832780732899003392 97077 66100 86936 -421920
832780732917215232 96983 66021 86886 -421964
832780732935426944 96861 65904 86892 -421962
832780732953638656 96890 65973 86954 -421916
832780732971850496 96858 65907 86913 -421965
832780732990062208 96880 65988 86906 -421977
832780733008274048 96983 66042 86907 -421920
832780733026485800 97068 66135 86894 -421932
832780733044698112 97193 66261 86840 -421977
832780733062910464 97287 66305 86870 -421938
832780733081122816 97370 66441 86906 -421937
832780733099335040 97497 66666 86894 -421958
832780733117547392 97648 66759 86956 -421918
832780733135759744 97729 66860 86912 -421945
832780733153972096 97878 66929 86880 -421922
832780733172184320 97963 67025 86931 -421944
832780733190396672 98087 67129 86941 -421876
832780733208609024 98143 67188 87008 -421901
832780733226821376 98192 67258 86988 -421929
832780733245033728 98297 67330 86989 -421903
832780733263245952 98251 67328 86846 -421955
832780733281458304 98255 67291 86901 -421925
832780733299670656 98242 67302 86969 -421950
832780733317883008 98248 67285 86901 -421955
832780733336095232 98264 67292 86900 -421945
832780733354307584 98307 67370 86933 -421883
832780733372519936 98256 67367 86947 -421908
832780733390732288 98300 67406 86923 -421900
832780733408944640 98373 67493 86899 -421935
832780733427156864 98495 67530 86895 -421917
832780733445369216 98509 67699 86943 -421916
832780733463581568 98643 67748 86985 -421939
832780733481793920 98924 67978 86894 -421973
832780733500006144 98960 68017 86875 -421976
832780733518218496 99068 68159 86882 -421908
832780733536430848 99231 68312 86941 -421928
832780733554643200 99327 68381 86890 -421941
832780733572855552 99487 68482 86940 -421920
832780733591067776 99540 68577 86912 -421992
832780733609280128 99628 68691 86906 -421938
832780733627492480 99623 68766 86939 -421961
832780733645704832 99635 68659 86899 -421959
832780733663917056 99526 68606 86867 -422017
832780733682129408 99498 68482 86858 -421970
832780733700341760 99303 68327 86891 -421910
832780733718554112 99117 68227 86979 -421934
832780733736766464 98886 68003 86918 -421954
832780733754978688 98639 67715 86895 -422005
832780733773191070 98408 67520 86878 -422004
832780733791403392 98199 67296 86942 -421960
832780733809615744 97970 67080 86904 -421976
832780733827828096 97756 66872 86846 -421924
832780733846040576 97498 66619 86917 -421962
832780733864252928 97355 66434 86896 -421954
832780733882465280 97125 66232 86909 -421980
832780733900677632 97035 66174 86920 -421976
832780733918890112 96962 66078 86937 -421928
832780733937102464 96947 66042 86928 -421955
832780733955314816 96926 66011 86920 -421920
832780733973527168 96830 66014 86930 -421968
832780733991739520 96955 66096 86917 -421975
832780734009952000 97026 66127 86895 -421966
832780734028164352 97054 66180 86901 -421930
832780734046376704 97133 66259 86868 -421952
832780734064589056 97251 66348 86882 -421979
832780734082801408 97373 66459 86902 -421982
832780734101013888 97505 66642 86918 -421966
832780734119226240 97702 66752 86977 -421910
832780734137438592 97851 66894 86970 -421890
832780734155650944 97849 66926 86892 -421979
832780734173863424 97974 67083 86908 -421959
832780734192075776 98061 67141 86900 -421955
832780734210288128 98157 67153 86884 -421983
832780734228500480 98200 67220 86873 -421947
832780734246712832 98161 67238 86887 -421947
832780734264925312 98258 67280 86892 -421952
832780734283137664 98133 67243 86837 -421982
832780734301350016 98217 67337 86923 -421962
832780734319562368 98178 67266 86891 -421965
832780734337774720 98304 67302 86979 -421946
832780734355987200 98309 67291 86953 -421897
832780734374199552 98298 67289 86964 -421947
832780734392411904 98329 67369 86922 -421968
832780734410624256 98375 67467 86905 -421975
832780734428836736 98425 67469 86891 -421948
832780734447049088 98550 67602 86944 -421897
832780734465261440 98685 67744 86918 -421891
832780734483473792 98731 67863 86934 -421860
832780734501686144 98892 67986 86913 -421934
832780734519898624 99006 68124 86902 -421955
832780734538111014 99180 68226 86884 -421983
832780734556322560 99324 68456 86891 -421916
832780734574534144 99438 68494 86857 -421976
832780734592745856 99576 68614 86897 -421980
832780734610957440 99606 68691 86899 -421961
832780734629169024 99633 68706 86893 -421975
832780734647380608 99608 68666 86887 -421992
832780734665592320 99532 68638 86854 -421956
832780734683803904 99447 68562 86922 -421931
832780734702015488 99244 68364 86947 -421925
832780734720227072 99051 68204 86924 -421937
832780734738438784 98881 67972 86904 -421998
832780734756650368 98628 67705 86911 -421998
832780734774861952 98390 67523 86937 -421960
832780734793073536 98195 67317 86933 -421969
832780734811285248 97948 67081 86892 -421890
832780734829496832 97740 66833 86906 -421917
832780734847708416 97580 66618 86920 -421928
832780734865920000 97358 66431 86939 -421949
832780734884131712 97190 66325 86907 -421915
832780734902343296 96971 66103 86857 -421932
832780734920554880 96936 66073 86912 -421924
832780734938766464 96853 65993 86919 -421960
832780734956978176 96836 65908 86815 -422005
832780734975189760 96925 65918 86865 -421905
832780734993401344 96895 66026 86837 -421999
832780735011612928 96957 66093 86896 -421955
832780735029824640 97034 66106 86875 -421953
832780735048036224 97217 66202 86921 -421911
832780735066247808 97223 66376 86887 -421961
832780735084459392 97411 66452 86899 -421972
832780735102671104 97569 66677 86985 -421955
832780735120882688 97653 66762 86914 -421961
832780735139094272 97783 66870 86925 -421955
832780735157305856 97887 67018 86956 -421951
832780735175517568 97970 67084 86965 -421980
832780735193729152 98113 67149 86944 -421941
832780735211940736 98100 67238 86934 -421963
832780735230152320 98163 67219 86860 -421902
832780735248364032 98106 67255 86804 -421987
832780735266575616 98177 67297 86868 -421927
832780735284787200 98220 67348 86853 -421926
832780735302998906 98237 67330 86890 -421936
832780735321211264 98186 67349 86907 -421931
832780735339423616 98203 67342 86930 -421912
832780735357635968 98214 67362 86828 -421961
832780735375848320 98257 67388 86857 -421945
832780735394060672 98334 67396 86855 -421968
832780735412273024 98378 67383 86838 -421984
832780735430485376 98478 67509 86916 -421982
832780735448697728 98538 67593 86853 -421967
832780735466909952 98792 67902 86856 -421996
832780735485122304 98861 67928 86897 -421965
832780735503334656 98932 68032 86908 -422017
832780735521547008 99086 68153 86866 -421964
832780735539759360 99154 68234 86860 -421948
832780735557971712 99264 68403 86863 -421975
832780735576184064 99389 68495 86836 -421936
832780735594396416 99538 68615 86860 -421977
832780735612608768 99686 68728 86888 -421935
832780735630821120 99703 68790 86896 -421941
832780735649033472 99620 68704 86831 -421932
832780735667245824 99547 68591 86870 -421951
832780735685458176 99403 68516 86935 -421953
832780735703670528 99294 68350 86911 -421938
832780735721882752 99108 68179 86903 -421920
832780735740095104 98929 67948 86888 -421926
832780735758307456 98727 67781 86917 -421915
832780735776519808 98400 67483 86843 -421928
832780735794732160 98162 67246 86893 -421959
832780735812944512 97917 67060 86904 -421939
832780735831156864 97752 66839 86938 -421907
832780735849369216 97515 66582 86902 -421918
832780735867581568 97308 66404 86967 -421933
832780735885793920 97132 66263 86946 -421936
832780735904006272 97008 66131 86930 -421962
832780735922218624 96898 66031 86825 -421980
832780735940430976 96837 65987 86857 -421967
832780735958643328 96841 65967 86837 -421902
832780735976855552 96973 66073 86909 -421918
832780735995067904 97012 66056 86922 -421919
832780736013280256 96923 66106 86871 -421962
832780736031492608 97086 66229 86964 -421896
832780736049704960 97174 66311 86935 -421935
832780736067917316 97233 66371 86918 -421953
832780736086130688 97375 66486 86895 -421961
832780736104344064 97557 66682 86905 -421968
832780736122557312 97684 66808 86947 -421985
832780736140770688 97800 66916 86913 -421986
832780736158983936 97931 67080 86945 -421928
832780736177197312 97995 67127 86935 -421977
832780736195410688 98096 67215 86958 -421937
832780736213623936 98148 67261 86950 -421978
832780736231837312 98192 67282 86911 -421959
832780736250050560 98179 67328 86936 -421969
832780736268263936 98254 67370 86942 -422002
832780736286477312 98220 67334 86968 -421977
832780736304690560 98317 67351 86963 -421919
832780736322903936 98260 67353 86962 -421941
832780736341117184 98309 67362 86940 -421932
832780736359330560 98249 67359 86871 -421950
832780736377543936 98254 67331 86943 -421971
832780736395757184 98370 67407 86922 -421969
832780736413970560 98420 67444 86916 -421930
832780736432183808 98501 67556 86913 -421945
832780736450397184 98615 67718 86968 -421969
832780736468610432 98713 67829 86941 -421900
832780736486823808 98964 68075 86955 -421933
832780736505037184 98906 68049 86907 -421983
832780736523250432 99101 68208 86920 -421950
832780736541463808 99199 68267 86875 -421964
832780736559677056 99358 68442 86884 -421925
832780736577890432 99467 68558 86910 -421909
832780736596103808 99586 68645 86930 -421984
832780736614317056 99633 68703 86904 -421939
832780736632530432 99581 68740 86916 -421997
832780736650743680 99660 68724 86943 -421908
832780736668957056 99578 68599 86952 -421946
832780736687170432 99434 68506 86936 -421988
832780736705383680 99305 68394 86944 -421913
832780736723597056 99064 68111 86927 -421920
832780736741810304 98839 67978 86911 -421925
832780736760023680 98658 67766 86917 -421956
832780736778237056 98447 67485 86895 -421951
832780736796450304 98164 67295 86799 -421963
832780736814663680 97955 67062 86926 -421949
832780736832876926 97627 66751 86884 -421952
832780736851089024 97441 66601 86885 -421981
832780736869301120 97317 66400 86856 -421913
832780736887513216 97165 66237 86884 -421959
832780736905725312 97026 66147 86946 -421976
832780736923937408 96959 66092 86893 -421924
832780736942149504 96878 66010 86858 -421928
832780736960361600 96793 65991 86919 -421963
832780736978573696 96878 65943 86916 -421952
832780736996785792 96868 65992 86875 -421952
832780737014997760 96969 66091 86951 -421943
832780737033209856 97060 66191 86950 -421973
832780737051421952 97150 66253 86912 -421973
832780737069634048 97286 66478 86989 -421921
832780737087846144 97469 66547 86958 -421920
832780737106058240 97591 66694 86930 -421936
832780737124270336 97725 66782 86906 -421927
832780737142482432 97832 66879 86894 -421947
832780737160694528 97883 67041 86920 -421931
832780737178906624 98039 67129 86876 -421933
832780737197118720 98103 67131 86908 -421937
832780737215330816 98180 67243 86969 -421966
832780737233542912 98206 67245 86888 -421970
832780737251755008 98283 67296 86929 -421924
832780737269967104 98275 67284 86941 -421904
832780737288179200 98321 67330 86920 -421934
832780737306391296 98269 67289 86935 -421960
832780737324603392 98299 67336 86974 -421915
832780737342815360 98266 67317 86926 -421913
832780737361027456 98312 67385 86964 -421902
832780737379239552 98322 67347 86956 -421837
832780737397451648 98345 67420 86924 -421894
832780737415663744 98420 67493 86959 -421875
832780737433875840 98505 67561 86905 -421903
832780737452087936 98572 67655 86913 -421967
832780737470300032 98758 67794 86896 -421947
832780737488512128 98845 67930 86912 -421938
832780737506724224 99031 68062 86921 -421948
832780737524936320 99176 68211 86936 -421937
832780737543148416 99331 68394 86960 -421918
832780737561360512 99402 68448 86950 -421958
832780737579572608 99495 68637 86937 -421960
832780737597784654 99588 68715 86961 -421982
832780737615997056 99676 68797 86960 -421925
832780737634209408 99652 68749 86927 -421969
832780737652421760 99657 68764 86924 -421937
832780737670634112 99605 68664 86951 -421918
832780737688846464 99458 68499 86919 -421902
832780737707058816 99267 68326 86921 -422037
832780737725271168 99064 68105 86931 -421937
832780737743483520 98879 67906 86854 -421978
832780737761695744 98692 67697 86943 -421921
832780737779908096 98362 67497 86914 -421989
832780737798120448 98164 67224 86919 -421967
832780737816332800 97917 67012 86939 -421924
832780737834545152 97693 66789 86942 -421941
832780737852757504 97452 66545 86863 -421996
832780737870969856 97351 66385 86946 -421931
832780737889182208 97166 66200 86825 -421989
832780737907394560 96976 66080 86838 -421960
832780737925606912 96940 66041 86913 -421984
832780737943819264 96937 66020 86939 -421952
832780737962031616 96984 66061 86922 -421982
832780737980243968 96901 65974 86919 -422009
832780737998456320 96976 66042 86952 -421954
832780738016668544 96995 66119 86938 -421943
832780738034880896 97099 66175 86946 -421955
832780738053093248 97236 66295 86850 -421994
832780738071305600 97303 66466 86904 -421954
832780738089517952 97475 66584 86870 -421964
832780738107730304 97561 66669 86846 -421948
832780738125942656 97735 66779 86922 -421959
832780738144155008 97853 67002 86923 -421947
832780738162367360 97926 67051 86963 -421973
832780738180579712 97991 67124 86851 -422005
832780738198792064 98035 67237 86916 -421967
832780738217004416 98165 67270 86924 -421949
832780738235216768 98205 67284 86867 -421995
832780738253429120 98186 67334 86876 -421972
832780738271641344 98198 67312 86879 -421976
832780738289853696 98158 67390 86877 -421968
832780738308066048 98175 67352 86951 -421992
832780738326278400 98138 67315 86868 -421993
832780738344490752 98238 67243 86926 -421947
832780738362703064 98283 67410 86909 -421966
832780738380914688 98311 67385 86916 -421922
832780738399126272 98378 67450 86882 -421987
832780738417337984 98454 67469 86906 -421950
832780738435549568 98529 67521 86885 -421934
832780738453761152 98624 67681 86901 -421968
832780738471972736 98858 67985 86954 -421964
832780738490184448 98898 68025 86968 -421961
832780738508396032 99043 68041 86884 -421961
832780738526607616 99154 68187 86968 -421955
832780738544819200 99301 68305 86905 -421932
832780738563030912 99452 68472 86901 -421912
832780738581242496 99515 68580 86954 -421929
832780738599454080 99616 68632 86899 -421941
832780738617665664 99691 68744 86906 -422011
832780738635877376 99673 68764 86899 -421989
832780738654088960 99652 68703 86912 -421954
832780738672300544 99624 68650 86931 -421972
832780738690512128 99430 68479 86896 -421980
832780738708723840 99230 68291 86805 -421989
832780738726935424 99091 68127 86862 -421935
832780738745147008 98896 67983 86918 -421915
832780738763358592 98595 67700 86920 -421926
832780738781570304 98348 67441 86934 -421960
832780738799781888 98140 67228 86923 -421950
832780738817993472 97909 67010 86960 -421900
832780738836205056 97672 66802 86960 -421922
832780738854416768 97452 66566 86987 -421965
832780738872628352 97292 66407 86906 -421979
832780738890839936 97145 66168 86856 -422000
832780738909051520 97045 66139 86899 -421992
832780738927263232 96924 66018 86920 -421943
832780738945474816 96908 65976 86928 -421950
832780738963686400 96916 65980 86917 -421985
832780738981897984 97027 66117 86889 -421938
832780739000109696 96985 66011 86882 -421951
832780739018321280 97051 66102 86926 -421943
832780739036532864 97127 66228 86921 -421949
832780739054744448 97247 66360 86913 -421928
832780739072956160 97386 66472 86973 -421937
832780739091167744 97507 66637 86912 -421900
832780739109379328 97656 66720 86885 -421931
832780739127590956 97748 66824 86872 -421919
832780739145803136 97806 66881 86888 -421972
832780739164015360 97987 67079 86929 -421942
832780739182227456 98107 67158 86940 -421914
832780739200439680 98140 67190 86919 -421898
832780739218651904 98160 67217 86921 -421937
832780739236864000 98254 67256 86941 -421908
832780739255076224 98254 67286 86885 -421937
832780739273288448 98230 67299 86891 -421968
832780739291500672 98268 67362 86927 -421918
832780739309712768 98258 67343 86939 -421949
832780739327924992 98259 67328 86956 -421909
832780739346137216 98288 67370 86921 -421950
832780739364349312 98373 67440 86894 -421932
832780739382561536 98379 67439 86918 -421949
832780739400773760 98367 67383 86926 -421966
832780739418985856 98402 67493 86895 -421946
832780739437198080 98485 67543 86885 -422010
832780739455410304 98629 67694 86905 -421976
832780739473622400 98742 67807 86944 -421996
832780739491834624 98850 67960 86893 -421953
832780739510046848 99013 68120 86935 -421933
832780739528258944 99165 68287 86918 -421896
832780739546471168 99225 68343 86891 -421976
832780739564683392 99425 68492 86913 -421968
832780739582895616 99523 68643 86975 -421903
832780739601107712 99642 68693 86975 -421925
832780739619319936 99726 68723 86893 -421922
832780739637532160 99632 68704 86955 -421990
832780739655744256 99642 68697 86961 -421890
832780739673956480 99632 68646 86963 -421947
832780739692168704 99400 68435 86904 -422051
832780739710380800 99218 68294 86890 -421983
832780739728593024 99055 68101 86902 -421932
832780739746805248 98814 67884 86956 -421935
832780739765017344 98621 67689 86934 -421965
832780739783229568 98386 67391 86902 -421924
832780739801441792 98117 67204 86948 -421961
832780739819654016 97910 66936 86890 -421937
832780739837866112 97634 66790 86961 -421909
832780739856078336 97497 66592 86965 -421907
832780739874290560 97312 66408 86965 -421933
832780739892502656 97182 66256 86920 -421916
832780739910714880 97076 66146 86929 -421945
832780739928927232 96962 65994 86982 -421917
832780739947139584 96927 66015 87026 -421934
832780739965352064 96941 66010 86958 -421938
832780739983564416 96904 66024 86967 -421978
832780740001776896 96964 66102 86948 -421938
832780740019989248 97064 66145 86962 -421969
832780740038201728 97124 66327 86957 -421988
832780740056414080 97246 66459 86989 -421946
832780740074626560 97381 66453 86940 -421920
832780740092838912 97520 66583 86981 -421945
832780740111051392 97637 66777 86940 -421908
832780740129263744 97826 66920 86973 -421933
832780740147476224 97882 67001 86950 -421915
832780740165688576 97952 67091 86941 -421955
832780740183901056 98049 67162 86964 -421943
832780740202113408 98145 67209 86934 -421972
832780740220325888 98219 67283 86912 -421914
832780740238538240 98199 67288 86900 -421949
832780740256750720 98245 67337 86912 -421945
832780740274963072 98211 67333 86895 -421961
832780740293175552 98187 67311 86880 -422033
832780740311387904 98246 67366 86954 -421900
832780740329600384 98248 67331 86896 -421907
832780740347812736 98217 67347 86959 -421933
832780740366025216 98238 67372 86923 -421968
832780740384237568 98299 67376 86914 -421976
832780740402450048 98342 67440 86890 -421982
832780740420662400 98390 67492 86854 -421999
832780740438874880 98553 67592 86954 -421919
832780740457087232 98641 67713 86916 -421943
832780740475299712 98760 67809 86871 -421960
832780740493512064 98884 67986 86969 -421898
832780740511724544 98965 68054 86861 -421965
832780740529936896 99116 68280 86919 -421937
832780740548149376 99337 68416 86876 -421929
832780740566361728 99426 68515 86827 -421986
832780740584574208 99547 68672 86903 -421982
832780740602786560 99618 68772 86929 -421961
832780740620999040 99617 68770 86916 -421928
832780740639211392 99659 68745 86925 -421914
832780740657423872 99600 68710 86939 -421956
832780740675636342 99570 68636 86940 -421918
832780740693848704 99366 68449 86914 -421884
832780740712061056 99241 68316 86939 -421917
832780740730273536 99011 68141 86960 -421908
832780740748485888 98798 67912 86929 -421936
832780740766698368 98506 67731 86914 -421939
832780740784910720 98300 67435 86930 -421935
832780740803123200 98051 67145 86855 -421954
832780740821335552 97858 66951 86917 -421915
832780740839548032 97590 66705 86888 -421927
832780740857760384 97414 66496 86880 -421944
832780740875972864 97208 66305 86928 -421986
832780740894185216 97095 66177 86891 -421962
832780740912397696 97001 66123 86913 -421970
832780740930610048 96947 65994 86885 -421975
832780740948822528 96842 65986 86911 -421920
832780740967034880 96875 66019 86892 -421976
832780740985247360 96883 66033 86875 -422003
832780741003459712 96932 66121 86903 -421936
832780741021672192 97000 66144 86877 -421992
832780741039884544 97130 66272 86975 -421960
832780741058097024 97137 66277 86910 -421994
832780741076309376 97397 66388 86836 -421960
832780741094521856 97476 66631 86880 -422024
832780741112734208 97584 66738 86902 -421993
832780741130946688 97797 66881 86874 -421928
832780741149159040 97861 66924 86875 -421972
832780741167371520 97945 67069 86931 -422004
832780741185583872 98093 67102 86911 -421944
832780741203796352 98090 67128 86858 -421982
832780741222008704 98172 67284 86922 -421932
832780741240221184 98168 67290 86890 -421963
832780741258433536 98233 67345 86902 -421942
832780741276646016 98230 67301 86862 -421969
832780741294858368 98222 67351 86902 -421954
832780741313070848 98243 67320 86895 -422031
832780741331283200 98274 67314 86848 -422009
832780741349495680 98250 67380 86939 -422012
832780741367708032 98310 67347 86892 -421980
832780741385920512 98315 67443 86913 -421979
832780741404132864 98383 67572 86920 -421925
832780741422345344 98422 67595 86925 -421969
832780741440557812 98562 67680 86916 -421986
832780741458770176 98640 67770 86958 -421955
832780741476982528 98731 67940 86904 -421964
832780741495194880 98891 68020 86890 -421932
832780741513407360 99017 68125 86852 -421995
832780741531619712 99220 68292 86902 -421936
832780741549832064 99361 68423 86897 -421966
832780741568044416 99479 68559 86856 -421986
832780741586256896 99564 68646 86908 -421971
832780741604469248 99634 68740 86855 -421976
832780741622681600 99701 68788 86846 -421944
832780741640893952 99611 68744 86883 -421977
832780741659106304 99577 68691 86900 -421928
832780741677318784 99540 68648 86912 -421919
832780741695531136 99406 68454 86927 -421968
832780741713743488 99169 68261 86874 -421944
832780741731955840 98977 68166 86977 -421925
832780741750168192 98771 67871 86918 -421943
832780741768380672 98524 67642 86879 -421950
832780741786593024 98282 67366 86894 -421934
832780741804805376 98114 67135 86920 -421934
832780741823017728 97889 66927 86984 -421925
832780741841230208 97624 66757 86926 -421918
832780741859442560 97413 66473 86882 -421979
832780741877654912 97282 66352 86952 -421928
832780741895867264 97120 66151 86922 -421970
832780741914079616 96979 66067 86979 -421990
832780741932292096 96918 66018 86894 -421986
832780741950504448 96884 65986 86914 -421977
832780741968716800 96871 66000 86931 -421972
832780741986929152 96963 66007 86948 -421972
832780742005141504 96994 66058 86904 -421965
832780742023353984 97035 66156 86880 -422023
832780742041566336 97092 66207 86802 -421967
832780742059778688 97280 66414 86869 -421930
832780742077991040 97359 66532 86884 -421939
832780742096203520 97547 66612 86880 -421971
832780742114415872 97704 66750 86838 -421956
832780742132628224 97844 66814 86901 -421928
832780742150840576 97859 66950 86852 -421929
832780742169052990 97952 67107 86867 -421952
832780742187266816 98064 67198 86889 -421947
832780742205480704 98128 67244 86923 -421919
832780742223694464 98181 67237 86923 -421925
832780742241908352 98203 67300 86946 -421922
832780742260122240 98283 67303 86959 -421898
832780742278336128 98298 67368 86957 -421926
832780742296549888 98305 67341 86931 -421916
832780742314763776 98287 67376 86930 -421952
832780742332977664 98256 67365 86908 -421978
832780742351191424 98270 67366 86921 -421996
832780742369405312 98297 67374 86907 -421986
832780742387619200 98333 67484 86944 -421966
832780742405833088 98384 67524 86951 -421921
832780742424046848 98462 67565 86913 -421981
832780742442260736 98547 67680 86875 -421939
832780742460474624 98669 67785 86934 -421928
832780742478688512 98724 67789 86893 -421998
832780742496902272 98943 68005 86933 -421935
832780742515116160 99062 68120 86969 -421967
832780742533330048 99157 68260 86927 -421971
832780742551543808 99318 68429 86968 -421977
832780742569757696 99419 68562 86965 -421971
832780742587971584 99543 68567 86888 -422005
832780742606185472 99590 68720 86907 -422031
832780742624399232 99636 68748 86900 -422057
832780742642613120 99584 68689 86863 -422013
832780742660827008 99520 68666 86865 -421979
832780742679040768 99434 68599 86844 -422040
832780742697254656 99298 68412 86887 -422013
832780742715468544 99187 68265 86917 -421992
832780742733682432 98962 68041 86869 -421986
832780742751896192 98737 67830 86853 -421945
832780742770110080 98462 67565 86876 -421966
832780742788323968 98267 67337 86833 -421967
832780742806537728 98054 67140 86918 -421921
832780742824751616 97800 66878 86902 -421914
832780742842965504 97576 66668 86865 -421972
832780742861179392 97388 66564 86866 -421962
832780742879393152 97231 66326 86885 -421970
832780742897607040 97111 66203 86921 -421930
832780742915820928 96988 66027 86872 -421992
832780742934034688 96886 65974 86893 -421987
832780742952248630 96870 65985 86893 -421935
832780742970461696 96881 66019 86944 -421969
832780742988674816 96904 66053 86910 -421956
832780743006887936 97011 66089 86979 -421964
832780743025101184 97219 66301 86929 -421918
832780743043314304 97241 66328 86945 -421905
832780743061527424 97314 66412 86952 -421968
832780743079740544 97402 66538 87029 -421921
832780743097953664 97512 66657 86908 -421968
832780743116166784 97638 66737 86926 -421935
832780743134380032 97718 66827 86878 -421956
832780743152593152 97880 67029 86918 -421964
832780743170806272 97947 67085 86896 -421963
832780743189019392 98063 67168 86914 -421938
832780743207232512 98118 67236 86935 -421918
832780743225445632 98141 67231 86871 -421990
832780743243658880 98211 67272 86905 -421963
832780743261872000 98213 67321 86897 -421979
832780743280085120 98161 67304 86849 -421964
832780743298298240 98191 67274 86884 -421980
832780743316511360 98306 67355 86958 -421944
832780743334724480 98301 67341 86934 -421989
832780743352937728 98246 67387 86953 -421981
832780743371150848 98260 67370 86861 -422014
832780743389363968 98403 67462 86897 -421983
832780743407577088 98382 67526 86902 -421976
832780743425790208 98465 67579 86907 -421961
832780743444003456 98518 67601 86897 -421922
832780743462216576 98635 67790 86941 -421968
832780743480429696 98771 67875 86944 -421902
832780743498642816 98894 67998 86946 -421947
832780743516855936 98994 68120 86901 -421994
832780743535069056 99135 68256 86851 -421994
832780743553282304 99311 68383 86940 -421972
832780743571495424 99443 68592 86965 -421956
832780743589708544 99645 68671 87014 -421928
832780743607921664 99673 68751 86937 -421919
832780743626134784 99736 68752 86959 -421945
832780743644347904 99657 68722 86891 -421931
832780743662561152 99603 68685 86882 -421931
832780743680774272 99520 68571 86944 -421949
832780743698987392 99369 68418 86842 -421961
832780743717200610 99235 68310 86916 -421925
832780743735412864 98925 68025 86861 -421996
832780743753625088 98799 67874 86957 -421886
832780743771837184 98490 67586 86910 -421921
832780743790049408 98224 67373 86905 -421905
832780743808261504 98033 67166 86901 -421903
832780743826473728 97786 66933 86896 -421918
832780743844685824 97608 66653 86889 -421907
832780743862898048 97406 66446 86895 -421916
832780743881110144 97216 66347 86951 -421980
832780743899322368 97099 66192 86891 -421934
832780743917534464 96957 66112 86908 -421959
832780743935746688 96901 66068 86969 -421915
832780743953958784 96835 65973 86895 -421942
832780743972171008 96825 65986 86865 -421920
832780743990383104 96853 65999 86883 -421984
832780744008595328 96916 66016 86834 -421986
832780744026807424 97102 66157 86911 -421903
832780744045019648 97235 66228 86933 -421960
832780744063231744 97291 66414 86930 -421958
832780744081443968 97462 66513 86929 -421924
832780744099656064 97593 66671 86965 -421903
832780744117868288 97710 66729 86903 -421925
832780744136080384 97840 66837 86968 -421907
832780744154292608 97944 67051 86996 -421847
832780744172504704 98082 67103 86952 -421912
832780744190716928 98068 67229 86903 -421986
832780744208929024 98199 67291 86941 -421893
832780744227141248 98219 67285 86910 -421914
832780744245353344 98221 67291 86888 -421955
832780744263565568 98238 67336 86890 -421928
832780744281777664 98238 67362 86929 -421920
832780744299989888 98184 67373 86904 -421959
832780744318201984 98212 67316 86894 -421968
832780744336414208 98262 67366 86907 -421929
832780744354626304 98276 67362 86883 -421962
832780744372838528 98317 67380 86910 -421955
832780744391050624 98298 67409 86905 -421938
832780744409262848 98352 67474 86917 -422016
832780744427474944 98408 67560 86904 -422011
832780744445687168 98594 67664 86931 -421934
832780744463899264 98675 67776 86930 -421965
832780744482111390 98782 67910 86921 -421945
832780744500323968 98940 68075 86945 -421946
832780744518536576 99107 68157 86942 -421962
832780744536749312 99202 68367 86958 -421936
832780744554961920 99318 68496 86911 -421950
832780744573174656 99460 68529 86916 -421985
832780744591387264 99533 68644 86907 -421956
832780744609600000 99615 68749 86895 -421939
832780744627812608 99701 68799 86868 -421965
832780744646025344 99665 68722 86908 -421976
832780744664237952 99549 68710 86850 -421949
832780744682450688 99471 68570 86908 -421996
832780744700663296 99264 68413 86873 -421984
832780744718876032 99182 68232 86854 -422002
832780744737088640 98936 68036 86844 -421983
832780744755301376 98727 67855 86919 -421973
832780744773513984 98511 67608 86908 -421936
832780744791726720 98239 67299 86885 -421986
832780744809939328 97983 67091 86899 -422011
832780744828152064 97757 66886 86904 -421952
832780744846364672 97527 66698 86905 -421944
832780744864577408 97369 66523 86953 -421924
832780744882790016 97207 66248 86931 -421968
832780744901002752 97105 66151 86906 -421948
832780744919215360 96966 66132 86910 -421960
832780744937428096 96857 66018 86852 -421930
832780744955640704 96872 65978 86861 -421953
832780744973853440 96886 66000 86886 -421922
832780744992066048 96917 66007 86916 -421994
832780745010278784 97010 66052 86928 -421959
832780745028491392 97078 66122 86919 -421983
832780745046704128 97193 66277 86871 -421978
832780745064916736 97257 66459 86883 -421975
832780745083129472 97346 66550 86877 -422010
832780745101342080 97570 66609 86920 -421978
832780745119554688 97695 66779 86888 -422011
832780745137767424 97749 66839 86887 -422065
832780745155980032 97893 66962 86951 -421980
832780745174192768 98011 67051 86887 -421952
832780745192405376 98076 67146 86873 -422031
832780745210618112 98221 67237 86908 -421969
832780745228830720 98148 67238 86856 -422056
832780745247043534 98268 67255 86871 -421978
832780745265256320 98233 67318 86900 -421997
832780745283469056 98274 67358 86958 -421952
832780745301681792 98326 67374 86944 -421942
832780745319894528 98251 67367 86933 -421947
832780745338107264 98217 67388 86933 -421914
832780745356320000 98266 67341 86946 -422006
832780745374532736 98325 67441 86873 -421925
832780745392745472 98346 67496 86892 -421915
832780745410958208 98363 67528 86900 -422022
832780745429170944 98465 67569 86899 -421980
832780745447383808 98613 67643 86907 -422001
832780745465596544 98668 67753 86890 -421961
832780745483809280 98809 67874 86887 -421966
832780745502022016 98913 68016 86848 -421968
832780745520234752 99037 68188 86844 -422017
832780745538447488 99213 68352 86895 -421964
832780745556660224 99359 68529 86964 -421927
832780745574872960 99460 68631 86970 -421949
832780745593085696 99563 68680 86897 -421995
832780745611298432 99646 68745 86967 -421950
832780745629511168 99690 68789 86939 -421952
832780745647723904 99649 68793 86926 -421916
832780745665936640 99578 68722 86941 -421931
832780745684149376 99501 68558 86891 -421928
832780745702362112 99322 68393 86894 -421960
832780745720574848 99109 68212 86889 -421980
832780745738787584 98934 68075 86904 -422002
832780745757000320 98660 67806 86951 -421936
832780745775213056 98467 67569 86946 -421990
832780745793425920 98164 67304 86920 -421990
832780745811638656 97938 67055 86834 -421960
832780745829851392 97730 66908 86885 -421936
832780745848064128 97516 66650 86905 -421926
832780745866276864 97337 66484 86874 -421952
832780745884489600 97199 66281 86890 -421963
832780745902702336 97046 66170 86887 -421942
832780745920915072 97001 66075 86888 -421904
832780745939127808 96927 66024 86888 -421981
832780745957340544 96890 65974 86919 -421971
832780745975553280 96856 65940 86833 -422012
832780745993766016 96884 65969 86866 -421997
832780746011978728 96943 66031 86848 -421990
832780746030190848 97071 66224 86926 -421983
832780746048402944 97230 66326 86921 -421899
832780746066615040 97367 66472 86845 -421961
832780746084827136 97473 66595 86913 -421935
832780746103039360 97637 66692 86928 -421903
832780746121251456 97686 66754 86871 -422007
832780746139463552 97888 66933 86936 -421934
832780746157675648 97978 67046 86911 -421936
832780746175887744 98003 67123 86904 -421990
832780746194099840 98094 67234 86925 -421975
832780746212311936 98120 67266 86890 -421997
832780746230524032 98223 67286 86887 -421949
832780746248736256 98223 67296 86873 -421953
832780746266948352 98270 67372 86882 -421956
832780746285160448 98309 67398 86955 -421931
832780746303372544 98277 67392 86901 -421988
832780746321584640 98268 67398 86854 -421930
832780746339796736 98262 67370 86871 -421979
832780746358008832 98265 67443 86879 -421981
832780746376221056 98371 67504 86921 -421976
832780746394433152 98346 67475 86928 -421922
832780746412645248 98395 67540 86896 -421959
832780746430857344 98564 67659 86916 -421895
832780746449069440 98621 67749 86921 -421871
832780746467281536 98751 67821 86976 -421904
832780746485493632 98829 67952 86906 -421963
832780746503705856 98980 68109 86889 -421946
832780746521917952 99056 68216 86899 -421948
832780746540130048 99294 68339 86962 -421984
832780746558342144 99347 68409 86897 -421965
832780746576554240 99517 68620 86989 -421971
832780746594766336 99619 68716 86922 -421932
832780746612978432 99735 68804 86931 -421962
832780746631190528 99713 68724 86865 -422001
832780746649402752 99657 68799 86876 -421977
832780746667614848 99573 68643 86892 -421990
832780746685826944 99454 68569 86876 -421972
832780746704039040 99297 68398 86887 -421943
832780746722251136 99107 68204 86860 -421955
832780746740463232 98917 68019 86850 -421982
832780746758675328 98681 67810 86916 -421932
832780746776887552 98440 67580 86955 -421951
832780746795099600 98205 67302 86879 -421960
832780746813311488 97981 67094 86852 -421971
832780746831523328 97692 66859 86917 -421937
832780746849735168 97550 66627 86874 -421973
832780746867947008 97346 66409 86860 -421983
832780746886158848 97240 66241 86941 -421969
832780746904370688 97089 66180 86910 -421937
832780746922582528 96961 66102 86916 -422032
832780746940794240 96898 66020 86918 -421971
832780746959006080 96880 66015 86874 -421992
832780746977217920 96865 65994 86905 -422003
832780746995429760 96867 66056 86909 -422016
832780747013641600 96908 66076 86809 -421988
832780747031853440 97059 66154 86866 -422001
832780747050065280 97200 66290 86928 -421982
832780747068277120 97359 66465 86897 -421930
832780747086488960 97501 66604 86931 -421948
832780747104700800 97592 66704 86910 -421961
832780747122912640 97707 66778 86904 -422016
832780747141124480 97864 66956 86972 -422004
832780747159336192 97908 67078 86878 -421973
832780747177548032 98019 67181 86876 -421979
832780747195759872 98076 67241 86926 -421984
832780747213971712 98195 67273 86946 -421932
832780747232183552 98178 67316 86933 -421949
832780747250395392 98270 67358 86899 -421958
832780747268607232 98290 67365 86928 -421983
832780747286819072 98272 67345 86894 -421962
832780747305030912 98275 67380 86883 -421954
832780747323242752 98288 67411 86956 -421961
832780747341454592 98254 67426 86902 -421989
832780747359666432 98274 67394 86902 -421956
832780747377878144 98323 67482 86914 -421972
832780747396089984 98344 67457 86933 -422015
832780747414301824 98452 67567 86970 -421972
832780747432513664 98502 67654 86955 -421941
832780747450725504 98575 67687 86925 -421953
832780747468937344 98700 67807 86897 -421948
832780747487149184 98871 67971 86953 -421973
832780747505361024 99203 68291 86928 -421952
832780747523572864 99164 68273 86934 -421981
832780747541784704 99248 68322 86931 -421952
832780747559996544 99419 68505 86955 -421975
832780747578208262 99508 68640 86888 -421973
832780747596420608 99580 68686 86903 -421967
832780747614632960 99740 68769 86974 -421933
832780747632845312 99750 68808 86952 -421956
832780747651057664 99668 68789 86918 -421905
832780747669270016 99619 68672 86962 -421903
832780747687482368 99403 68561 86891 -421976
832780747705694720 99328 68494 86953 -421965
832780747723907072 99155 68206 86939 -421911
832780747742119296 98950 67990 86950 -421950
832780747760331648 98670 67772 86930 -421947
832780747778544000 98460 67520 86941 -421903
832780747796756352 98224 67269 86912 -421950
832780747814968704 97926 67056 86910 -421959
832780747833181056 97711 66854 86914 -421984
832780747851393408 97540 66650 86909 -421989
832780747869605760 97324 66416 86884 -421945
832780747887818112 97188 66292 86931 -421989
832780747906030464 97075 66153 86903 -421919
832780747924242816 96955 66024 86861 -421933
832780747942455168 96886 66025 86897 -421928
832780747960667520 96875 65978 86910 -421966
832780747978879872 96857 65983 86889 -421987
832780747997092096 96986 66083 86919 -421939
832780748015304448 97100 66213 86919 -421934
832780748033516800 97185 66298 86942 -421965
832780748051729152 97297 66448 86953 -421912
832780748069941504 97397 66520 86945 -421951
832780748088153856 97526 66587 86916 -421977
832780748106366208 97614 66722 86832 -421984
832780748124578560 97756 66820 86964 -421977
832780748142790912 97841 66992 86895 -421967
832780748161003264 97996 67070 86938 -421965
832780748179215616 98019 67121 86908 -421985
832780748197427968 98112 67219 86919 -421951
832780748215640320 98113 67241 86893 -421960
832780748233852672 98164 67333 86913 -421946
832780748252064896 98266 67375 86925 -421953
832780748270277248 98253 67362 86929 -421920
832780748288489600 98284 67349 86913 -421992
832780748306701952 98264 67377 86897 -421919
832780748324914304 98318 67390 86907 -421883
832780748343126672 98290 67369 86883 -421907
832780748361339776 98293 67426 86869 -421948
832780748379552896 98348 67437 86963 -421904
832780748397766016 98308 67496 86905 -421970
832780748415979264 98453 67562 86974 -421937
832780748434192384 98573 67676 86967 -421943
832780748452405504 98642 67776 86963 -421952
