TIMESTAMP PPG0 PPG1 PPG2 AMBIENT
832780522183179520 195631 139898 163079 -342142
832780522201361280 195615 139885 163118 -342250
832780522219543168 195711 139901 163127 -342194
832780522237724928 195675 139901 163139 -342223
832780522255906816 195695 139895 163117 -342198
832780522274088576 195647 139917 163131 -342227
832780522292270464 195644 139916 163130 -342217
832780522310452224 195594 139892 163128 -342192
832780522328634112 195632 139895 163131 -342192
832780522346815872 195678 139854 163148 -342220
832780522364997760 195588 139924 163111 -342142
832780522383179520 195647 139907 163120 -342178
832780522401361280 195634 139902 163128 -342181
832780522419543168 195666 139913 163178 -342150
832780522437724928 195697 139891 163158 -342158
832780522455906816 195689 139906 163170 -342144
832780522474088576 195685 139922 163132 -342229
832780522492270464 195727 139921 163191 -342172
832780522510452224 195697 139847 163142 -342230
832780522528634112 195710 139896 163154 -342179
832780522546815872 195709 139899 163179 -342159
832780522564997760 195687 139875 163122 -342180
832780522583179520 195656 139893 163163 -342192
832780522601361280 195638 139893 163147 -342222
832780522619543168 195580 139818 163075 -342214
832780522637724928 195706 139855 163185 -342138
832780522655906816 195681 139912 163194 -342214
832780522674088576 195724 139903 163177 -342185
832780522692270464 195700 139879 163098 -342133
832780522710452224 195659 139858 163117 -342159
832780522728634112 195638 139851 163104 -342214
832780522746815872 195735 139869 163173 -342213
832780522764997760 195649 139876 163131 -342214
832780522783179520 195643 139841 163088 -342219
832780522801361280 195646 139864 163085 -342223
832780522819543168 195667 139820 163080 -342216
832780522837724928 195752 139887 163128 -342209
832780522855906816 195687 139857 163127 -342234
832780522874088576 195681 139875 163151 -342203
832780522892270464 195630 139869 163131 -342247
832780522910452224 195645 139872 163123 -342259
832780522928634112 195655 139933 163146 -342239
832780522946815872 195707 139889 163101 -342267
832780522964997760 195702 139953 163152 -342273
832780522983179520 195691 139871 163156 -342201
832780523001361280 195675 139853 163131 -342201
832780523019543168 195699 139897 163141 -342168
832780523037724928 195724 139888 163113 -342235
832780523055906816 195725 139935 163132 -342216
832780523074088576 195768 139947 163131 -342200
832780523092270464 195711 139872 163159 -342181
832780523110452250 195678 139872 163157 -342203
832780523128663808 195672 139959 163194 -342262
832780523146875392 195725 139969 163209 -342205
832780523165087104 195765 139944 163144 -342196
832780523183298688 195720 139953 163177 -342218
832780523201510272 195737 139912 163178 -342205
832780523219721856 195709 139956 163182 -342170
832780523237933568 195696 139947 163165 -342201
832780523256145152 195667 139918 163140 -342216
832780523274356736 195702 139859 163126 -342176
832780523292568320 195776 139898 163146 -342251
832780523310780032 195770 139916 163170 -342186
832780523328991616 195758 139828 163140 -342214
832780523347203200 195721 139898 163140 -342259
832780523365414784 195668 139918 163136 -342171
832780523383626496 195632 139805 163112 -342255
832780523401838080 195699 139913 163141 -342235
832780523420049664 195674 139862 163091 -342214
832780523438261248 195650 139919 163088 -342289
832780523456472960 195649 139848 163078 -342237
832780523474684544 195646 139859 163098 -342206
832780523492896128 195676 139831 163136 -342231
832780523511107712 195709 139862 163158 -342132
832780523529319424 195668 139896 163094 -342196
832780523547531008 195692 139849 163090 -342182
832780523565742592 195713 139837 163159 -342237
832780523583954176 195650 139816 163111 -342201
832780523602165888 195625 139823 163118 -342237
832780523620377472 195694 139883 163135 -342225
832780523638589056 195709 139849 163143 -342239
832780523656800640 195647 139901 163107 -342231
832780523675012352 195712 139924 163176 -342196
832780523693223936 195684 139905 163128 -342205
832780523711435520 195668 139880 163104 -342216
832780523729647104 195720 139842 163083 -342211
832780523747858816 195667 139839 163120 -342219
832780523766070400 195762 139897 163088 -342228
832780523784281984 195737 139904 163155 -342211
832780523802493568 195713 139847 163165 -342243
832780523820705280 195644 139836 163125 -342238
832780523838916864 195693 139896 163111 -342229
832780523857128448 195727 139853 163128 -342214
832780523875340032 195776 139958 163212 -342171
832780523893551744 195726 139869 163139 -342163
832780523911763328 195796 139859 163144 -342211
832780523929974912 195717 139879 163097 -342218
832780523948186496 195725 139959 163131 -342201
832780523966398208 195689 139854 163152 -342237
832780523984609792 195697 139891 163132 -342272
832780524002821376 195702 139817 163102 -342288
832780524021032960 195679 139871 163101 -342237
832780524039244672 195704 139874 163159 -342205
832780524057456312 195707 139937 163186 -342200
832780524075667072 195666 139855 163156 -342214
832780524093877888 195689 139872 163161 -342223
832780524112088832 195681 139879 163085 -342171
832780524130299648 195693 139913 163142 -342259
832780524148510464 195647 139891 163095 -342260
832780524166721280 195771 139897 163103 -342184
832780524184932224 195696 139861 163091 -342233
832780524203143040 195750 139925 163194 -342192
832780524221353856 195691 139855 163137 -342183
832780524239564800 195719 139837 163141 -342175
832780524257775616 195735 139902 163121 -342172
832780524275986432 200742 144928 163161 -342125
832780524294197376 202866 147136 163122 -342191
832780524312408192 203959 148049 163173 -342205
832780524330619008 204326 148421 163173 -342212
832780524348829824 204552 148678 163225 -342170
832780524367040768 204628 148725 163178 -342182
832780524385251584 204721 148807 163178 -342167
832780524403462400 204782 148915 163197 -342194
832780524421673344 204841 148979 163147 -342200
832780524439884160 204996 149103 163151 -342172
832780524458094976 205032 149207 163124 -342212
832780524476305792 205214 149359 163129 -342191
832780524494516736 205339 149436 163137 -342221
832780524512727552 205644 149814 163151 -342230
832780524530938368 205718 149857 163140 -342306
832780524549149312 205881 149987 163170 -342249
832780524567360128 206031 150109 163114 -342233
832780524585570944 206115 150226 163110 -342279
832780524603781888 206240 150367 163187 -342200
832780524621992704 206338 150400 163183 -342198
832780524640203520 206272 150413 163163 -342237
832780524658414336 206234 150291 163118 -342191
832780524676625280 206123 150239 163191 -342194
832780524694836096 205954 150025 163153 -342284
832780524713046912 205765 149826 163239 -342151
832780524731257856 205520 149616 163202 -342188
832780524749468672 205249 149310 163157 -342166
832780524767679488 204932 149079 163115 -342201
832780524785890454 204667 148774 163130 -342203
832780524804101376 204317 148468 163110 -342245
832780524822312320 204069 148206 163129 -342245
832780524840523136 203822 147995 163135 -342244
832780524858734080 203637 147744 163213 -342210
832780524876944896 203404 147518 163181 -342210
832780524895155840 203240 147353 163168 -342227
832780524913366656 203135 147244 163211 -342188
832780524931577600 203024 147131 163175 -342222
832780524949788544 203044 147179 163176 -342142
832780524967999360 203083 147215 163219 -342240
832780524986210304 203049 147184 163177 -342221
832780525004421120 203186 147270 163180 -342113
832780525022632064 203190 147375 163129 -342184
832780525040843008 203318 147478 163118 -342157
832780525059053824 203373 147583 163144 -342195
832780525077264768 203644 147786 163211 -342183
832780525095475584 203705 147846 163109 -342229
832780525113686528 203956 148078 163232 -342180
832780525131897344 204093 148172 163181 -342184
832780525150108288 204199 148300 163202 -342188
832780525168319232 204371 148415 163192 -342170
832780525186530048 204528 148554 163180 -342177
832780525204740992 204550 148584 163208 -342159
832780525222951808 204559 148696 163142 -342184
832780525241162752 204593 148702 163187 -342184
832780525259373568 204639 148686 163123 -342221
832780525277584512 204675 148755 163197 -342164
832780525295795456 204691 148752 163212 -342209
832780525314006272 204693 148778 163182 -342166
832780525332217216 204686 148772 163149 -342199
832780525350428032 204673 148751 163160 -342195
832780525368638976 204644 148806 163183 -342199
832780525386849792 204704 148790 163118 -342206
832780525405060736 204788 148917 163175 -342212
832780525423271680 204863 149000 163173 -342206
832780525441482496 204991 149092 163140 -342204
832780525459693440 205145 149276 163162 -342197
832780525477904256 205456 149527 163122 -342199
832780525496115200 205489 149562 163135 -342211
832780525514326144 205595 149731 163161 -342203
832780525532536960 205765 149836 163135 -342238
832780525550747828 205896 150016 163117 -342202
832780525568958720 206057 150171 163169 -342187
832780525587169664 206212 150271 163113 -342200
832780525605380480 206375 150418 163143 -342204
832780525623591424 206382 150437 163165 -342221
832780525641802240 206376 150441 163186 -342187
832780525660013184 206213 150333 163138 -342269
832780525678224000 206138 150210 163141 -342212
832780525696434944 205934 150009 163219 -342231
832780525714645888 205780 149850 163187 -342213
832780525732856704 205489 149613 163222 -342264
832780525751067648 205239 149389 163231 -342228
832780525769278464 204933 149044 163198 -342246
832780525787489408 204656 148726 163207 -342238
832780525805700352 204350 148513 163191 -342216
832780525823911168 204091 148242 163185 -342219
832780525842122112 203887 147960 163209 -342257
832780525860332928 203658 147787 163212 -342205
832780525878543872 203403 147553 163205 -342170
832780525896754688 203185 147342 163164 -342165
832780525914965632 203137 147281 163162 -342134
832780525933176576 202995 147164 163158 -342154
832780525951387392 203018 147120 163181 -342181
832780525969598336 203069 147112 163156 -342194
832780525987809152 203117 147229 163175 -342222
832780526006020096 203119 147239 163160 -342211
832780526024230912 203263 147342 163180 -342205
832780526042441856 203371 147526 163173 -342186
832780526060652800 203578 147662 163187 -342205
832780526078863616 203709 147783 163180 -342151
832780526097074560 203854 147957 163159 -342212
832780526115285376 204038 148140 163194 -342121
832780526133496320 204129 148277 163182 -342144
832780526151707136 204264 148326 163147 -342155
832780526169918080 204386 148472 163146 -342160
832780526188129024 204450 148568 163194 -342185
832780526206339840 204515 148612 163241 -342189
832780526224550784 204653 148722 163208 -342150
832780526242761600 204660 148739 163198 -342203
832780526260972544 204599 148761 163199 -342198
832780526279183488 204701 148777 163193 -342185
832780526297394304 204619 148794 163145 -342263
832780526315605202 204685 148779 163219 -342157
832780526333815424 204615 148739 163200 -342199
832780526352025600 204715 148779 163189 -342195
832780526370235776 204722 148828 163191 -342205
832780526388445952 204853 148907 163159 -342161
832780526406656128 204865 148960 163177 -342178
832780526424866176 204943 148984 163119 -342175
832780526443076352 205077 149165 163205 -342221
832780526461286528 205169 149260 163155 -342228
832780526479496704 205291 149399 163139 -342252
832780526497706880 205437 149561 163124 -342240
832780526515917056 205654 149866 163202 -342163
832780526534127232 205805 149917 163180 -342202
832780526552337408 205984 150108 163190 -342200
832780526570547584 206057 150235 163158 -342183
832780526588757760 206213 150361 163192 -342189
832780526606967808 206334 150433 163221 -342155
832780526625177984 206409 150471 163210 -342191
832780526643388160 206379 150475 163179 -342137
832780526661598336 206264 150415 163174 -342195
832780526679808512 206147 150297 163214 -342131
832780526698018688 206002 150068 163181 -342168
832780526716228864 205758 149813 163159 -342155
832780526734439040 205493 149582 163213 -342191
832780526752649216 205205 149324 163161 -342225
832780526770859392 205067 149097 163190 -342086
832780526789069440 204698 148823 163173 -342132
832780526807279616 204408 148446 163151 -342151
832780526825489792 204171 148213 163186 -342101
832780526843699968 203962 147978 163176 -342124
832780526861910144 203673 147710 163205 -342125
832780526880120320 203454 147549 163213 -342160
832780526898330496 203272 147407 163214 -342131
832780526916540672 203238 147328 163228 -342160
832780526934750848 203090 147229 163196 -342155
832780526952961024 203071 147100 163158 -342246
832780526971171072 203050 147160 163223 -342154
832780526989381248 203107 147207 163228 -342171
832780527007591424 203192 147252 163187 -342188
832780527025801600 203339 147428 163224 -342167
832780527044011776 203471 147541 163221 -342192
832780527062221952 203523 147680 163177 -342153
832780527080432056 203704 147813 163185 -342171
832780527098642432 203828 147970 163216 -342179
832780527116852864 204065 148120 163182 -342183
832780527135063296 204195 148230 163226 -342151
832780527153273856 204315 148337 163168 -342196
832780527171484288 204414 148448 163208 -342178
832780527189694720 204581 148600 163260 -342175
832780527207905152 204563 148644 163197 -342203
832780527226115584 204648 148745 163223 -342189
832780527244326016 204641 148796 163200 -342182
832780527262536576 204677 148756 163197 -342205
832780527280747008 204695 148769 163169 -342179
832780527298957440 204690 148854 163196 -342134
832780527317167872 204638 148805 163224 -342194
832780527335378304 204668 148816 163209 -342214
832780527353588736 204730 148842 163224 -342252
832780527371799296 204769 148861 163194 -342229
832780527390009728 204850 148909 163257 -342233
832780527408220160 204925 148966 163192 -342158
832780527426430592 204962 149007 163120 -342202
832780527444641024 205092 149121 163136 -342201
832780527462851456 205201 149243 163145 -342175
832780527481062016 205331 149400 163154 -342201
832780527499272448 205486 149600 163161 -342194
832780527517482880 205681 149669 163175 -342231
832780527535693312 205821 149861 163152 -342223
832780527553903744 205990 150109 163208 -342168
832780527572114176 206134 150213 163185 -342150
832780527590324736 206313 150395 163206 -342212
832780527608535168 206332 150419 163163 -342218
832780527626745600 206346 150446 163176 -342184
832780527644956032 206317 150394 163111 -342222
832780527663166464 206276 150269 163192 -342198
832780527681376896 206151 150230 163168 -342229
832780527699587456 205946 150041 163225 -342201
832780527717797888 205716 149839 163190 -342184
832780527736008320 205469 149577 163205 -342181
832780527754218752 205208 149336 163158 -342183
832780527772429184 204926 148995 163186 -342221
832780527790639744 204633 148707 163195 -342189
832780527808850176 204392 148458 163264 -342188
832780527827060608 204160 148223 163211 -342147
832780527845271120 203917 147968 163208 -342187
832780527863481216 203681 147767 163208 -342200
832780527881691264 203479 147516 163154 -342179
832780527899901440 203253 147368 163131 -342189
832780527918111488 203165 147252 163147 -342196
832780527936321536 203082 147141 163092 -342195
832780527954531712 203057 147144 163154 -342192
832780527972741760 203061 147199 163142 -342227
832780527990951808 203043 147202 163119 -342287
832780528009161984 203188 147232 163182 -342219
832780528027372032 203305 147385 163181 -342232
832780528045582080 203450 147477 163173 -342214
832780528063792256 203516 147614 163164 -342215
832780528082002304 203770 147780 163175 -342168
832780528100212352 203885 147945 163146 -342183
832780528118422528 204028 148133 163178 -342189
832780528136632576 204153 148245 163164 -342216
832780528154842624 204369 148416 163186 -342154
832780528173052800 204455 148505 163185 -342178
832780528191262848 204565 148622 163170 -342194
832780528209472896 204626 148688 163202 -342165
832780528227683072 204662 148742 163138 -342213
832780528245893120 204715 148755 163197 -342157
832780528264103168 204674 148730 163189 -342187
832780528282313344 204732 148786 163169 -342201
832780528300523392 204719 148746 163144 -342129
832780528318733440 204718 148808 163202 -342129
832780528336943616 204706 148816 163177 -342198
832780528355153664 204788 148851 163182 -342191
832780528373363712 204787 148895 163221 -342151
832780528391573888 204923 148891 163196 -342159
832780528409783936 204850 148938 163170 -342177
832780528427993984 205050 149078 163265 -342179
832780528446204160 205094 149198 163210 -342176
832780528464414208 205280 149287 163198 -342195
832780528482624256 205416 149479 163161 -342199
832780528500834432 205529 149567 163204 -342194
832780528519044480 205711 149758 163183 -342234
832780528537254528 205883 149930 163206 -342159
832780528555464704 206041 150109 163148 -342209
832780528573674752 206190 150238 163154 -342124
832780528591884800 206280 150346 163140 -342127
832780528610094924 206364 150461 163183 -342174
832780528628305024 206371 150513 163147 -342209
832780528646515072 206400 150438 163236 -342179
832780528664725248 206354 150318 163200 -342183
832780528682935296 206155 150156 163225 -342195
832780528701145344 206018 150020 163196 -342143
832780528719355520 205780 149793 163227 -342196
832780528737565568 205508 149555 163187 -342232
832780528755775616 205290 149269 163210 -342181
832780528773985792 204943 149008 163204 -342152
832780528792195840 204574 148721 163153 -342195
832780528810405888 204312 148381 163145 -342197
832780528828616064 204047 148136 163135 -342238
832780528846826112 203822 147890 163166 -342229
832780528865036160 203600 147728 163194 -342200
832780528883246336 203467 147569 163207 -342201
832780528901456384 203266 147393 163165 -342212
832780528919666432 203176 147226 163169 -342212
832780528937876608 203094 147210 163199 -342140
832780528956086656 203098 147153 163228 -342165
832780528974296704 203036 147154 163169 -342167
832780528992506880 203261 147328 163202 -342210
832780529010716928 203245 147352 163202 -342233
832780529028926976 203285 147431 163185 -342214
832780529047137152 203455 147554 163172 -342205
832780529065347200 203567 147710 163160 -342194
832780529083557248 203756 147883 163230 -342176
832780529101767424 203917 148030 163156 -342209
832780529119977472 204113 148155 163272 -342148
832780529138187520 204222 148230 163240 -342131
832780529156397696 204349 148398 163213 -342151
832780529174607744 204468 148504 163204 -342175
832780529192817792 204509 148554 163140 -342204
832780529211027968 204584 148676 163162 -342216
832780529229238016 204712 148769 163185 -342232
832780529247448064 204720 148746 163182 -342189
832780529265658240 204709 148794 163199 -342202
832780529283868288 204773 148787 163213 -342215
832780529302078336 204709 148796 163188 -342181
832780529320288512 204774 148776 163161 -342195
832780529338498560 204823 148887 163165 -342183
832780529356708608 204751 148866 163172 -342176
832780529374918728 204854 148860 163195 -342204
832780529393130240 204965 149006 163280 -342202
832780529411341696 204992 149007 163233 -342166
832780529429553152 205103 149084 163198 -342198
832780529447764608 205208 149168 163191 -342171
832780529465976064 205327 149299 163198 -342183
832780529484187648 205508 149487 163168 -342201
832780529502399104 205701 149675 163166 -342184
832780529520610560 205863 149894 163225 -342249
832780529538822016 206038 150058 163183 -342227
832780529557033472 206181 150194 163204 -342174
832780529575244928 206324 150329 163193 -342201
832780529593456384 206409 150408 163125 -342202
832780529611667840 206510 150548 163207 -342159
832780529629879424 206539 150477 163178 -342238
832780529648090880 206484 150461 163182 -342225
832780529666302336 206348 150325 163226 -342264
832780529684513792 206227 150230 163177 -342194
832780529702725248 206050 150121 163177 -342178
832780529720936704 205882 149920 163244 -342136
832780529739148160 205618 149616 163234 -342154
832780529757359616 205352 149311 163172 -342176
832780529775571072 205002 149035 163217 -342245
832780529793782656 204780 148744 163204 -342231
832780529811994112 204427 148424 163215 -342182
832780529830205568 204146 148195 163109 -342238
832780529848417024 203903 147924 163091 -342249
832780529866628480 203730 147791 163171 -342160
832780529884839936 203585 147607 163162 -342160
832780529903051392 203412 147439 163113 -342212
832780529921262848 203313 147343 163192 -342172
832780529939474432 203229 147247 163229 -342186
832780529957685888 203272 147247 163190 -342230
832780529975897344 203228 147213 163204 -342213
832780529994108800 203287 147296 163181 -342143
832780530012320256 203287 147329 163221 -342147
832780530030531712 203470 147479 163246 -342147
832780530048743168 203569 147600 163228 -342176
832780530066954624 203771 147719 163250 -342174
832780530085166208 203935 147863 163198 -342157
832780530103377664 204081 148001 163245 -342131
832780530121589120 204281 148215 163243 -342141
832780530139800518 204355 148381 163190 -342213
832780530158010752 204445 148436 163242 -342213
832780530176220928 204597 148597 163290 -342146
832780530194431104 204638 148692 163204 -342184
832780530212641280 204719 148748 163233 -342160
832780530230851584 204810 148868 163244 -342140
832780530249061760 204882 148856 163233 -342153
832780530267271936 204898 148807 163230 -342152
832780530285482112 204832 148812 163163 -342193
832780530303692288 204879 148802 163152 -342179
832780530321902464 204837 148808 163182 -342175
832780530340112768 204883 148900 163222 -342196
832780530358322944 204888 148836 163188 -342212
832780530376533120 204905 148935 163233 -342134
832780530394743296 205049 148959 163254 -342204
832780530412953472 205075 149013 163143 -342194
832780530431163648 205097 149116 163197 -342213
832780530449373952 205335 149280 163249 -342132
832780530467584128 205560 149559 163220 -342169
832780530485794304 205701 149668 163311 -342152
832780530504004480 205766 149696 163208 -342213
832780530522214656 205999 149903 163271 -342155
832780530540424832 206105 150025 163224 -342182
832780530558635136 206246 150213 163226 -342171
832780530576845312 206394 150344 163236 -342164
832780530595055488 206478 150485 163227 -342162
832780530613265664 206502 150510 163180 -342222
832780530631475840 206631 150591 163219 -342149
832780530649686016 206526 150533 163254 -342164
832780530667896320 206448 150416 163239 -342163
832780530686106496 206232 150212 163187 -342243
832780530704316672 206049 150008 163183 -342212
832780530722526848 205929 149915 163259 -342188
832780530740737024 205599 149578 163205 -342232
832780530758947200 205265 149281 163165 -342194
832780530777157504 205041 149042 163241 -342199
832780530795367680 204798 148722 163266 -342151
832780530813577856 204490 148419 163168 -342188
832780530831788032 204231 148233 163209 -342155
832780530849998208 203923 147984 163207 -342103
832780530868208384 203730 147722 163175 -342184
832780530886418688 203544 147529 163162 -342221
832780530904628864 203436 147422 163244 -342181
832780530922839000 203359 147304 163209 -342233
832780530941049984 203252 147195 163180 -342198
832780530959260928 203212 147143 163202 -342168
832780530977472000 203415 147346 163217 -342137
832780530995682944 203372 147338 163205 -342138
832780531013894016 203450 147414 163227 -342118
832780531032104960 203547 147480 163203 -342170
832780531050316032 203556 147617 163174 -342184
832780531068526976 203785 147752 163221 -342189
832780531086737920 203976 147938 163234 -342109
832780531104948992 204107 148056 163165 -342216
832780531123159936 204243 148207 163183 -342193
832780531141371008 204410 148341 163217 -342220
832780531159581952 204542 148464 163172 -342192
832780531177793024 204650 148561 163240 -342154
832780531196003968 204760 148633 163254 -342189
832780531214214912 204784 148723 163188 -342202
832780531232425984 204828 148734 163190 -342191
832780531250636928 204875 148797 163149 -342179
832780531268848000 204854 148787 163168 -342183
832780531287058944 204880 148793 163242 -342198
832780531305270016 204854 148811 163199 -342199
832780531323480960 204884 148777 163155 -342239
832780531341691904 204889 148856 163247 -342152
832780531359902976 204923 148888 163210 -342179
832780531378113920 204875 148893 163157 -342214
832780531396324992 204974 149014 163245 -342204
832780531414535936 205057 149104 163232 -342222
832780531432747008 205166 149183 163223 -342172
832780531450957952 205324 149256 163228 -342193
832780531469168896 205445 149367 163170 -342205
832780531487379968 205684 149664 163147 -342213
832780531505590912 205790 149781 163215 -342197
832780531523801984 205918 149923 163179 -342197
832780531542012928 206107 150023 163199 -342204
832780531560224000 206272 150203 163226 -342187
832780531578434944 206418 150338 163239 -342209
832780531596645888 206467 150391 163165 -342220
832780531614856960 206549 150537 163179 -342209
832780531633067904 206582 150561 163165 -342185
832780531651278976 206513 150478 163206 -342174
832780531669489920 206444 150394 163226 -342182
832780531687700952 206333 150284 163246 -342158
832780531705912448 206116 150056 163257 -342192
832780531724123904 205849 149758 163192 -342170
832780531742335488 205600 149590 163215 -342189
832780531760546944 205343 149252 163193 -342214
832780531778758528 205015 148990 163216 -342175
832780531796969984 204745 148709 163182 -342179
832780531815181440 204429 148366 163202 -342242
832780531833393024 204270 148188 163211 -342182
832780531851604480 203955 147942 163178 -342198
832780531869816064 203756 147652 163219 -342223
832780531888027520 203574 147543 163259 -342218
832780531906238976 203407 147345 163236 -342185
832780531924450560 203334 147232 163271 -342211
832780531942662016 203255 147234 163242 -342228
832780531960873600 203275 147222 163254 -342188
832780531979085056 203251 147245 163214 -342155
832780531997296512 203354 147271 163249 -342143
832780532015508096 203465 147351 163174 -342181
832780532033719552 203596 147465 163193 -342153
832780532051931136 203690 147614 163245 -342141
832780532070142592 203796 147733 163232 -342186
832780532088354048 204003 147934 163271 -342159
832780532106565632 204103 148094 163231 -342131
832780532124777088 204315 148257 163273 -342181
832780532142988672 204402 148363 163216 -342231
832780532161200128 204517 148490 163172 -342254
832780532179411584 204591 148601 163196 -342177
832780532197623168 204691 148702 163138 -342194
832780532215834624 204752 148733 163163 -342198
832780532234046208 204793 148760 163129 -342195
832780532252257664 204849 148811 163178 -342196
832780532270469120 204928 148823 163238 -342162
832780532288680704 204910 148849 163199 -342201
832780532306892160 204894 148805 163165 -342219
832780532325103744 204848 148756 163175 -342244
832780532343315200 204933 148848 163217 -342229
832780532361526656 204947 148895 163226 -342225
832780532379738240 204965 148932 163174 -342243
832780532397949696 204994 149019 163179 -342250
832780532416161280 205086 149042 163205 -342179
832780532434372736 205136 149135 163124 -342183
832780532452584266 205272 149300 163142 -342211
832780532470795904 205348 149324 163091 -342240
832780532489007488 205610 149509 163122 -342225
832780532507219200 205769 149712 163179 -342263
832780532525430784 205928 149894 163168 -342217
832780532543642368 206097 150060 163129 -342230
832780532561853952 206303 150206 163158 -342200
832780532580065664 206426 150293 163166 -342257
832780532598277248 206487 150420 163157 -342238
832780532616488832 206562 150480 163166 -342176
832780532634700416 206564 150477 163172 -342222
832780532652912128 206488 150470 163188 -342281
832780532671123712 206401 150322 163170 -342231
832780532689335296 206224 150204 163154 -342263
832780532707546880 206027 149953 163162 -342221
832780532725758592 205779 149753 163173 -342201
832780532743970176 205519 149485 163120 -342226
832780532762181760 205258 149165 163143 -342214
832780532780393344 204926 148959 163152 -342218
832780532798605056 204695 148650 163141 -342212
832780532816816640 204367 148293 163147 -342214
832780532835028224 204132 148106 163159 -342267
832780532853239808 203943 147876 163198 -342212
832780532871451520 203716 147700 163219 -342257
832780532889663104 203500 147528 163202 -342230
832780532907874688 203337 147321 163119 -342235
832780532926086272 203262 147166 163098 -342263
832780532944297984 203203 147155 163130 -342236
832780532962509568 203345 147243 163162 -342215
832780532980721152 203291 147266 163186 -342196
832780532998932736 203338 147325 163162 -342208
832780533017144448 203391 147355 163208 -342263
832780533035356032 203495 147495 163187 -342248
832780533053567616 203581 147644 163186 -342238
832780533071779200 203763 147735 163183 -342259
832780533089990912 203976 147906 163179 -342181
832780533108202496 204079 148053 163161 -342219
832780533126414080 204244 148241 163203 -342260
832780533144625664 204416 148394 163206 -342217
832780533162837376 204577 148466 163242 -342204
832780533181048960 204651 148597 163195 -342208
832780533199260544 204667 148657 163220 -342205
832780533217472158 204771 148753 163223 -342203
832780533235682304 204809 148754 163160 -342246
832780533253892480 204884 148844 163207 -342228
832780533272102656 204841 148819 163197 -342242
832780533290312832 204832 148832 163211 -342228
832780533308523008 204875 148810 163240 -342202
832780533326733184 204880 148814 163231 -342238
832780533344943232 204950 148861 163231 -342195
832780533363153408 204924 148905 163142 -342191
832780533381363584 204963 148859 163140 -342228
832780533399573760 204976 148964 163199 -342234
832780533417783936 205172 149063 163198 -342167
832780533435994112 205189 149090 163140 -342253
832780533454204288 205356 149327 163170 -342205
832780533472414464 205489 149411 163191 -342235
832780533490624640 205611 149528 163136 -342265
832780533508834816 205853 149726 163187 -342191
832780533527044864 205985 149888 163224 -342170
832780533545255040 206155 150066 163199 -342198
832780533563465216 206268 150151 163142 -342242
832780533581675392 206420 150375 163171 -342248
832780533599885568 206493 150457 163149 -342228
832780533618095744 206575 150513 163215 -342247
832780533636305920 206562 150517 163246 -342201
832780533654516096 206533 150512 163244 -342169
832780533672726272 206437 150322 163197 -342264
832780533690936448 206297 150195 163191 -342276
832780533709146496 206074 149982 163113 -342245
832780533727356672 205831 149774 163237 -342200
832780533745566848 205549 149474 163179 -342261
832780533763777024 205244 149187 163127 -342235
832780533781987200 204976 148858 163183 -342205
832780533800197376 204676 148609 163175 -342168
832780533818407552 204374 148344 163179 -342244
832780533836617728 204149 148110 163175 -342172
832780533854827904 203936 147867 163199 -342178
832780533873038080 203654 147659 163180 -342180
832780533891248128 203557 147513 163152 -342161
832780533909458304 203357 147302 163121 -342172
832780533927668480 203233 147224 163170 -342196
832780533945878656 203209 147207 163164 -342221
832780533964088832 203232 147088 163187 -342233
832780533982299014 203240 147241 163203 -342214
832780534000510208 203321 147318 163221 -342183
832780534018721408 203405 147373 163171 -342215
832780534036932608 203566 147477 163165 -342276
832780534055143808 203705 147669 163166 -342216
832780534073355136 203855 147833 163222 -342185
832780534091566336 203973 147912 163195 -342216
832780534109777536 204165 148110 163228 -342187
832780534127988736 204313 148300 163229 -342213
832780534146199936 204422 148400 163230 -342218
832780534164411136 204513 148539 163182 -342221
832780534182622336 204627 148611 163221 -342169
832780534200833536 204704 148639 163196 -342222
832780534219044864 204791 148771 163217 -342211
832780534237256064 204838 148769 163166 -342220
832780534255467264 204869 148857 163180 -342194
832780534273678464 204853 148809 163188 -342201
832780534291889664 204835 148793 163164 -342180
832780534310100864 204826 148803 163147 -342189
832780534328312064 204879 148866 163200 -342218
832780534346523264 204871 148788 163191 -342231
832780534364734592 204934 148862 163203 -342181
832780534382945792 204959 148897 163153 -342253
832780534401156992 205026 149002 163170 -342216
832780534419368192 205074 149036 163190 -342196
832780534437579392 205182 149113 163185 -342223
832780534455790592 205299 149266 163156 -342272
832780534474001792 205484 149470 163141 -342232
832780534492213120 205680 149580 163199 -342215
832780534510424320 205826 149737 163146 -342229
832780534528635520 205949 149851 163170 -342256
832780534546846720 206139 150022 163195 -342236
832780534565057920 206246 150172 163186 -342293
832780534583269120 206371 150281 163180 -342202
832780534601480320 206524 150432 163245 -342188
832780534619691520 206617 150508 163230 -342161
832780534637902848 206544 150488 163118 -342274
832780534656114048 206528 150478 163211 -342213
832780534674325248 206432 150316 163164 -342209
832780534692536448 206269 150146 163166 -342164
832780534710747648 206015 149988 163192 -342199
832780534728958848 205787 149774 163228 -342151
832780534747170120 205453 149429 163137 -342244
832780534765380736 205196 149224 163173 -342227
832780534783591296 204930 148949 163190 -342227
832780534801801856 204632 148680 163197 -342216
832780534820012416 204361 148346 163192 -342254
832780534838222976 204170 148064 163170 -342255
832780534856433536 203829 147804 163170 -342280
832780534874644096 203592 147562 163071 -342274
832780534892854656 203490 147455 163166 -342244
832780534911065216 203348 147278 163130 -342240
832780534929275776 203320 147232 163121 -342189
832780534947486336 203206 147170 163114 -342213
832780534965696896 203225 147199 163120 -342230
832780534983907456 203275 147207 163140 -342242
832780535002118016 203307 147244 163181 -342249
832780535020328576 203482 147460 163165 -342271
832780535038539136 203636 147581 163214 -342236
832780535056749696 203715 147628 163193 -342281
832780535074960256 203851 147803 163190 -342212
832780535093170816 203957 147972 163196 -342227
832780535111381376 204130 148063 163125 -342257
832780535129591936 204316 148227 163160 -342210
832780535147802496 204464 148352 163212 -342194
832780535166013056 204620 148451 163190 -342212
832780535184223744 204666 148565 163145 -342282
832780535202434304 204734 148611 163130 -342244
832780535220644864 204782 148701 163179 -342220
832780535238855424 204855 148786 163168 -342213
832780535257065984 204867 148788 163129 -342211
832780535275276544 204856 148747 163157 -342219
832780535293487104 204825 148776 163159 -342237
832780535311697664 204846 148820 163135 -342254
832780535329908224 204870 148816 163156 -342223
832780535348118784 204910 148814 163189 -342215
832780535366329344 204981 148857 163217 -342239
832780535384539904 205000 148955 163224 -342167
832780535402750464 205062 148983 163192 -342245
832780535420961024 205072 149017 163130 -342296
832780535439171584 205251 149170 163177 -342254
832780535457382144 205406 149348 163205 -342211
832780535475592704 205491 149430 163138 -342212
832780535493803264 205631 149618 163163 -342218
832780535512013762 205805 149796 163175 -342223
832780535530224896 205979 149934 163199 -342265
832780535548435968 206083 150100 163192 -342235
832780535566647040 206241 150199 163153 -342276
832780535584858112 206358 150381 163197 -342249
832780535603069184 206528 150458 163231 -342299
832780535621280256 206582 150488 163206 -342246
832780535639491328 206568 150537 163193 -342262
832780535657702400 206573 150471 163186 -342197
832780535675913472 206425 150333 163174 -342240
832780535694124544 206291 150184 163151 -342204
832780535712335616 206070 149992 163223 -342186
832780535730546688 205803 149691 163228 -342211
832780535748757760 205494 149459 163205 -342171
832780535766968832 205253 149158 163247 -342166
832780535785179904 204966 148847 163189 -342213
832780535803390976 204652 148549 163198 -342228
832780535821602048 204416 148348 163221 -342260
832780535839813120 204144 148061 163209 -342217
832780535858024192 203926 147848 163290 -342187
832780535876235264 203707 147666 163295 -342250
832780535894446336 203462 147393 163240 -342221
832780535912657408 203388 147314 163243 -342186
832780535930868480 203323 147184 163171 -342209
832780535949079552 203275 147168 163171 -342215
832780535967290624 203255 147168 163179 -342217
832780535985501696 203275 147233 163195 -342208
832780536003712768 203360 147343 163169 -342188
832780536021923840 203472 147428 163173 -342196
832780536040134912 203573 147483 163140 -342280
832780536058345984 203661 147607 163186 -342226
832780536076557056 203911 147823 163187 -342182
832780536094768128 204076 147941 163243 -342255
832780536112979200 204160 148096 163161 -342250
832780536131190272 204342 148228 163165 -342210
832780536149401344 204447 148439 163216 -342209
832780536167612416 204567 148527 163217 -342197
832780536185823488 204689 148650 163206 -342166
832780536204034560 204770 148699 163243 -342192
832780536222245632 204828 148821 163211 -342147
832780536240456704 204825 148807 163149 -342183
832780536258667776 204892 148830 163185 -342219
832780536276878764 204904 148803 163189 -342213
832780536295089536 204911 148812 163182 -342215
832780536313300352 204865 148797 163183 -342212
832780536331511168 204852 148756 163126 -342240
832780536349721984 204865 148781 163089 -342267
832780536367932800 204973 148879 163181 -342227
832780536386143616 205012 148960 163215 -342188
832780536404354432 204971 148950 163141 -342232
832780536422565248 205145 149048 163139 -342246
832780536440776064 205225 149129 163108 -342234
832780536458986880 205387 149336 163199 -342218
832780536477197696 205511 149497 163189 -342158
832780536495408512 205838 149775 163197 -342204
832780536513619328 205908 149834 163216 -342204
832780536531830144 206051 149980 163193 -342213
832780536550040960 206248 150152 163273 -342120
832780536568251776 206341 150306 163261 -342197
832780536586462592 206490 150397 163241 -342196
832780536604673408 206613 150497 163302 -342203
832780536622884224 206609 150620 163299 -342204
832780536641095040 206584 150551 163244 -342163
832780536659305856 206468 150464 163221 -342213
832780536677516672 206405 150352 163260 -342193
832780536695727488 206236 150191 163204 -342217
832780536713938304 205992 149977 163221 -342209
832780536732149120 205821 149690 163188 -342193
832780536750359936 205517 149439 163196 -342218
832780536768570752 205235 149178 163225 -342203
832780536786781568 204952 148857 163182 -342200
832780536804992384 204682 148684 163212 -342208
832780536823203200 204425 148345 163246 -342223
832780536841414016 204125 148022 163165 -342223
832780536859624832 203927 147793 163192 -342228
832780536877835648 203678 147660 163249 -342228
832780536896046464 203541 147494 163216 -342217
832780536914257280 203337 147344 163230 -342239
832780536932468096 203358 147261 163239 -342201
832780536950678912 203254 147236 163192 -342199
832780536968889728 203268 147166 163163 -342199
832780536987100544 203254 147209 163189 -342221
832780537005311360 203359 147344 163244 -342138
832780537023522176 203479 147405 163224 -342206
832780537041733086 203655 147582 163196 -342180
832780537059945344 203724 147676 163192 -342232
832780537078157568 203936 147823 163191 -342243
832780537096369792 204086 148010 163256 -342169
832780537114581888 204242 148128 163183 -342164
832780537132794112 204353 148268 163214 -342212
832780537151006336 204484 148454 163185 -342184
832780537169218560 204586 148553 163214 -342161
832780537187430784 204662 148726 163199 -342172
832780537205642880 204757 148675 163171 -342175
832780537223855104 204832 148755 163188 -342299
832780537242067328 204848 148820 163165 -342246
832780537260279552 204862 148840 163223 -342233
832780537278491776 204879 148856 163202 -342225
832780537296703872 204856 148857 163209 -342188
832780537314916096 204910 148887 163195 -342244
832780537333128320 204908 148871 163225 -342220
832780537351340544 204928 148902 163206 -342239
832780537369552768 204945 148895 163204 -342244
832780537387764864 204994 148967 163220 -342206
832780537405977088 205082 149049 163165 -342225
832780537424189312 205190 149128 163163 -342186
832780537442401536 205279 149259 163147 -342215
832780537460613760 205406 149322 163169 -342222
832780537478825856 205608 149567 163215 -342172
832780537497038080 205737 149709 163215 -342170
832780537515250304 206012 149962 163223 -342199
832780537533462528 206128 150099 163240 -342191
832780537551674624 206198 150133 163224 -342251
832780537569886848 206314 150252 163163 -342209
832780537588099072 206544 150449 163211 -342274
832780537606311296 206590 150459 163160 -342238
832780537624523520 206663 150544 163206 -342157
832780537642735616 206587 150553 163200 -342234
832780537660947840 206498 150449 163193 -342144
832780537679160064 206414 150339 163231 -342159
832780537697372288 206272 150193 163210 -342166
832780537715584512 205988 149903 163195 -342165
832780537733796608 205756 149727 163194 -342162
832780537752008832 205413 149402 163145 -342252
832780537770221056 205165 149172 163217 -342187
832780537788433280 204888 148824 163177 -342215
832780537806645396 204609 148525 163221 -342229
832780537824857728 204372 148322 163195 -342198
832780537843070080 204086 148060 163217 -342230
832780537861282432 203890 147791 163194 -342199
832780537879494784 203682 147629 163195 -342196
832780537897707136 203506 147443 163180 -342197
832780537915919488 203388 147332 163212 -342167
832780537934131840 203218 147239 163172 -342154
832780537952344320 203218 147178 163226 -342182
832780537970556672 203311 147203 163240 -342146
832780537988769024 203309 147233 163221 -342194
832780538006981376 203437 147355 163202 -342245
832780538025193728 203494 147407 163181 -342203
832780538043406080 203633 147488 163225 -342162
832780538061618432 203805 147707 163225 -342212
832780538079830784 203943 147852 163178 -342178
832780538098043136 203980 147953 163151 -342200
832780538116255488 204191 148183 163209 -342219
832780538134467840 204312 148366 163204 -342184
832780538152680192 204480 148424 163131 -342204
832780538170892544 204602 148535 163126 -342175
832780538189105024 204685 148700 163205 -342177
832780538207317376 204772 148765 163238 -342211
832780538225529728 204796 148743 163164 -342209
832780538243742080 204867 148791 163166 -342217
832780538261954432 204888 148842 163210 -342178
832780538280166784 204857 148850 163261 -342168
832780538298379136 204910 148857 163216 -342191
832780538316591488 204932 148848 163180 -342163
832780538334803840 204926 148864 163210 -342176
832780538353016192 204931 148884 163189 -342209
832780538371228544 204946 148933 163222 -342221
832780538389440896 204982 148998 163262 -342219
832780538407653248 205118 149075 163241 -342196
832780538425865728 205180 149130 163197 -342229
832780538444078080 205327 149246 163196 -342200
832780538462290432 205369 149324 163169 -342249
832780538480502784 205712 149678 163215 -342171
832780538498715136 205799 149709 163198 -342203
832780538516927488 205906 149857 163223 -342225
832780538535139840 206132 150044 163275 -342180
832780538553352192 206277 150215 163279 -342200
832780538571564544 206462 150326 163271 -342212
832780538589776956 206587 150435 163175 -342198
832780538607988480 206610 150501 163191 -342219
832780538626200064 206619 150551 163233 -342163
832780538644411776 206635 150536 163232 -342154
832780538662623360 206466 150465 163222 -342180
832780538680834944 206426 150356 163202 -342230
832780538699046528 206152 150112 163204 -342242
832780538717258240 205981 149895 163277 -342161
832780538735469824 205719 149622 163151 -342226
832780538753681408 205455 149421 163240 -342204
832780538771892992 205152 149135 163120 -342228
832780538790104704 204886 148842 163153 -342248
832780538808316288 204653 148572 163159 -342167
832780538826527872 204281 148241 163177 -342199
832780538844739456 204154 147956 163256 -342221
832780538862951168 203862 147778 163168 -342214
832780538881162752 203649 147565 163132 -342256
832780538899374336 203479 147388 163180 -342226
832780538917585920 203408 147310 163208 -342212
832780538935797632 203329 147167 163191 -342225
832780538954009216 203277 147198 163210 -342218
832780538972220800 203278 147130 163192 -342205
832780538990432384 203433 147327 163195 -342234
832780539008644096 203488 147373 163191 -342214
832780539026855680 203529 147498 163178 -342206
832780539045067264 203676 147584 163212 -342199
832780539063278848 203780 147689 163197 -342222
832780539081490560 203894 147916 163239 -342205
832780539099702144 204122 148053 163230 -342182
832780539117913728 204250 148175 163190 -342229
832780539136125312 204376 148270 163221 -342201
832780539154337024 204503 148403 163190 -342172
832780539172548608 204640 148546 163191 -342132
832780539190760192 204682 148637 163194 -342208
832780539208971776 204755 148678 163103 -342215
832780539227183488 204842 148768 163177 -342205
832780539245395072 204882 148851 163132 -342234
832780539263606656 204877 148832 163186 -342223
832780539281818240 204904 148827 163176 -342249
832780539300029952 204890 148846 163183 -342281
832780539318241536 204950 148890 163199 -342251
832780539336453120 204933 148871 163207 -342270
832780539354664848 204922 148866 163243 -342290
832780539372877184 204941 148891 163216 -342217
832780539391089536 205043 148979 163222 -342133
832780539409301888 205100 149015 163237 -342162
832780539427514240 205167 149118 163214 -342182
832780539445726592 205333 149224 163183 -342177
832780539463938944 205459 149349 163139 -342218
832780539482151296 205580 149570 163202 -342158
832780539500363648 205887 149798 163177 -342225
832780539518575872 205966 149901 163236 -342214
832780539536788224 206132 150037 163258 -342182
832780539555000576 206247 150182 163169 -342222
832780539573212928 206426 150326 163189 -342236
832780539591425280 206559 150373 163172 -342251
832780539609637632 206559 150504 163186 -342200
832780539627849984 206629 150570 163193 -342238
832780539646062336 206599 150515 163195 -342219
832780539664274688 206532 150499 163209 -342204
832780539682487040 206358 150260 163222 -342223
832780539700699392 206217 150071 163209 -342263
832780539718911744 205984 149947 163242 -342159
832780539737124096 205679 149656 163240 -342145
832780539755336448 205486 149370 163199 -342172
832780539773548672 205199 149138 163213 -342204
832780539791761024 204852 148778 163176 -342182
832780539809973376 204639 148505 163183 -342201
832780539828185728 204370 148252 163219 -342186
832780539846398080 204046 147972 163192 -342209
832780539864610432 203849 147783 163170 -342222
832780539882822784 203678 147578 163165 -342165
832780539901035136 203515 147440 163181 -342149
832780539919247488 203372 147340 163215 -342201
832780539937459840 203287 147239 163231 -342164
832780539955672192 203238 147201 163192 -342166
832780539973884544 203276 147235 163202 -342180
832780539992096896 203286 147332 163161 -342256
832780540010309248 203561 147481 163196 -342230
832780540028521472 203609 147568 163149 -342221
832780540046733824 203690 147617 163200 -342226
832780540064946176 203832 147749 163211 -342176
832780540083158528 203955 147881 163170 -342211
832780540101370880 204124 148081 163293 -342148
832780540119583258 204234 148212 163239 -342232
832780540137795840 204360 148344 163244 -342197
832780540156008448 204518 148486 163223 -342175
832780540174221056 204661 148603 163216 -342165
832780540192433792 204771 148725 163254 -342220
832780540210646400 204810 148667 163211 -342229
832780540228859008 204857 148721 163185 -342226
832780540247071616 204918 148850 163262 -342181
832780540265284224 204960 148845 163226 -342180
832780540283496960 204971 148860 163216 -342152
832780540301709568 204954 148876 163228 -342234
832780540319922176 204978 148888 163233 -342228
832780540338134784 204958 148938 163261 -342220
832780540356347392 204940 148931 163219 -342206
832780540374560128 205013 148982 163229 -342217
832780540392772736 205146 149034 163157 -342248
832780540410985344 205132 149094 163246 -342206
832780540429197952 205281 149196 163289 -342185
832780540447410560 205373 149272 163230 -342181
832780540465623296 205442 149365 163216 -342182
832780540483835904 205673 149592 163276 -342144
832780540502048512 205773 149703 163238 -342171
832780540520261120 205965 149878 163278 -342210
832780540538473728 206125 150045 163230 -342238
832780540556686464 206358 150222 163246 -342186
832780540574899072 206473 150320 163208 -342202
832780540593111680 206564 150398 163193 -342231
832780540611324288 206615 150555 163203 -342253
832780540629536896 206636 150550 163188 -342172
832780540647749632 206679 150465 163195 -342167
832780540665962240 206568 150408 163202 -342198
832780540684174848 206425 150266 163259 -342202
832780540702387456 206178 150125 163203 -342158
832780540720600064 205956 149883 163185 -342200
832780540738812800 205697 149622 163168 -342212
832780540757025408 205378 149336 163200 -342232
832780540775238016 205123 149020 163168 -342178
832780540793450624 204823 148737 163254 -342171
832780540811663232 204535 148504 163223 -342160
832780540829875968 204206 148213 163186 -342217
832780540848088576 204011 147969 163191 -342174
832780540866301184 203812 147763 163192 -342234
832780540884513876 203646 147540 163226 -342194
832780540902726272 203502 147357 163194 -342199
832780540920938624 203403 147264 163248 -342174
832780540939151104 203337 147237 163275 -342178
832780540957363456 203392 147351 163181 -342216
832780540975575936 203310 147323 163207 -342247
832780540993788288 203310 147305 163233 -342244
832780541012000768 203392 147345 163208 -342235
832780541030213120 203555 147466 163206 -342187
832780541048425600 203671 147578 163193 -342223
832780541066637952 203826 147671 163178 -342200
832780541084850432 203969 147855 163147 -342242
832780541103062784 204171 148000 163158 -342225
832780541121275264 204208 148157 163112 -342233
832780541139487616 204494 148355 163290 -342195
832780541157700096 204535 148449 163214 -342201
832780541175912448 204682 148588 163166 -342218
832780541194124928 204780 148726 163205 -342171
832780541212337280 204830 148686 163169 -342200
832780541230549760 204878 148803 163211 -342210
832780541248762112 204915 148854 163211 -342184
832780541266974592 204982 148808 163178 -342200
832780541285186944 204939 148844 163194 -342202
832780541303399424 204906 148841 163147 -342236
832780541321611776 204968 148827 163147 -342223
832780541339824256 204964 148829 163237 -342170
832780541358036608 204930 148888 163241 -342141
832780541376249088 205016 148905 163246 -342170
832780541394461440 205084 148997 163225 -342235
832780541412673920 205163 149049 163212 -342169
832780541430886272 205242 149171 163228 -342198
832780541449098752 205422 149279 163324 -342140
832780541467311104 205475 149473 163254 -342160
832780541485523584 205759 149713 163223 -342222
832780541503735936 205830 149719 163163 -342193
832780541521948416 205964 149844 163178 -342209
832780541540160768 206118 150041 163223 -342263
832780541558373248 206268 150163 163131 -342180
832780541576585600 206479 150335 163179 -342178
832780541594798080 206544 150466 163176 -342228
832780541613010432 206638 150496 163177 -342193
832780541631222912 206637 150548 163188 -342182
832780541649435338 206636 150472 163204 -342194
832780541667648512 206508 150380 163178 -342242
832780541685861632 206346 150312 163182 -342167
832780541704074752 206190 150115 163219 -342196
832780541722288000 205925 149901 163222 -342209
832780541740501120 205690 149606 163188 -342202
832780541758714240 205428 149356 163238 -342197
832780541776927360 205135 149053 163248 -342200
832780541795140480 204855 148791 163231 -342175
832780541813353600 204579 148522 163238 -342235
832780541831566848 204315 148254 163211 -342187
832780541849779968 204088 147989 163162 -342230
832780541867993088 203881 147747 163181 -342194
832780541886206208 203664 147573 163176 -342225
832780541904419328 203487 147429 163206 -342233
832780541922632448 203348 147325 163224 -342221
832780541940845696 203368 147269 163185 -342192
832780541959058816 203311 147225 163217 -342175
832780541977271936 203303 147203 163240 -342243
832780541995485056 203305 147325 163229 -342216
832780542013698176 203407 147381 163199 -342231
832780542031911296 203550 147466 163189 -342164
832780542050124544 203698 147658 163257 -342168
832780542068337664 203845 147783 163263 -342180
832780542086550784 204034 147993 163220 -342201
832780542104763904 204223 148074 163244 -342197
832780542122977024 204298 148231 163200 -342223
832780542141190272 204442 148348 163247 -342216
832780542159403392 204515 148462 163151 -342254
832780542177616512 204677 148612 163204 -342232
832780542195829632 204772 148704 163206 -342209
832780542214042752 204909 148794 163222 -342254
832780542232255872 204875 148863 163223 -342220
832780542250469120 204872 148788 163214 -342236
832780542268682240 204927 148829 163220 -342199
832780542286895360 204903 148832 163160 -342279
832780542305108480 204895 148895 163257 -342238
832780542323321600 204929 148843 163190 -342218
832780542341534720 204946 148908 163243 -342153
832780542359747968 204939 148895 163153 -342228
832780542377961088 205007 148952 163132 -342210
832780542396174208 205102 148967 163217 -342220
832780542414387318 205155 149040 163217 -342124
832780542432600448 205304 149161 163240 -342107
832780542450813568 205352 149260 163219 -342204
832780542469026688 205526 149434 163223 -342196
832780542487239936 205743 149632 163239 -342245
832780542505453056 206014 149888 163212 -342267
832780542523666176 206025 149983 163199 -342195
832780542541879296 206225 150169 163193 -342230
832780542560092416 206344 150242 163222 -342203
832780542578305536 206434 150413 163180 -342203
832780542596518784 206611 150523 163152 -342185
832780542614731904 206702 150561 163233 -342220
832780542632945024 206637 150552 163195 -342255
832780542651158144 206570 150457 163210 -342288
832780542669371264 206496 150410 163243 -342245
832780542687584384 206306 150278 163193 -342212
832780542705797632 206163 150085 163212 -342210
832780542724010752 205867 149830 163164 -342205
832780542742223872 205654 149633 163228 -342181
832780542760436992 205336 149326 163200 -342233
832780542778650112 205116 149041 163259 -342188
832780542796863232 204779 148688 163160 -342260
832780542815076480 204500 148433 163141 -342282
832780542833289600 204205 148216 163195 -342239
832780542851502720 203966 147932 163134 -342255
832780542869715840 203853 147721 163251 -342229
832780542887928960 203631 147514 163181 -342185
832780542906142208 203457 147358 163215 -342201
832780542924355328 203359 147262 163170 -342191
832780542942568448 203219 147149 163113 -342263
832780542960781568 203310 147153 163169 -342204
832780542978994688 203268 147182 163196 -342237
832780542997207808 203313 147325 163262 -342210
832780543015421056 203530 147485 163179 -342230
832780543033634176 203569 147549 163147 -342230
832780543051847296 203707 147638 163135 -342203
832780543070060416 203837 147842 163163 -342220
832780543088273536 203965 147953 163143 -342269
832780543106486656 204119 148043 163185 -342252
832780543124699904 204343 148243 163186 -342230
832780543142913024 204511 148412 163197 -342186
832780543161126144 204548 148490 163168 -342346
832780543179339298 204677 148549 163208 -342286
832780543197551872 204745 148610 163145 -342278
832780543215764480 204866 148760 163219 -342252
832780543233976960 204880 148774 163190 -342222
832780543252189568 204878 148830 163260 -342205
832780543270402176 204901 148845 163188 -342246
832780543288614656 204949 148864 163245 -342186
832780543306827264 204913 148894 163199 -342196
832780543325039744 204900 148820 163204 -342194
832780543343252352 204965 148837 163211 -342234
832780543361464960 204944 148810 163240 -342252
832780543379677440 205044 148944 163223 -342185
832780543397890048 205091 148908 163177 -342184
832780543416102656 205189 149014 163163 -342262
832780543434315136 205222 149096 163137 -342265
832780543452527744 205375 149271 163214 -342214
832780543470740224 205479 149369 163124 -342288
832780543488952832 205692 149541 163210 -342269
832780543507165440 205816 149713 163222 -342178
832780543525377920 205999 149935 163208 -342225
832780543543590528 206181 150106 163206 -342159
832780543561803136 206303 150250 163144 -342201
832780543580015616 206449 150408 163183 -342253
832780543598228224 206554 150482 163233 -342253
832780543616440832 206678 150516 163185 -342274
832780543634653312 206662 150520 163177 -342253
832780543652865920 206602 150503 163212 -342223
832780543671078400 206547 150374 163204 -342186
832780543689291008 206323 150216 163217 -342195
832780543707503616 206125 150064 163202 -342236
832780543725716096 205870 149808 163207 -342245
832780543743928704 205612 149579 163261 -342179
832780543762141312 205375 149272 163228 -342221
832780543780353792 205066 148958 163186 -342231
832780543798566400 204779 148688 163173 -342282
832780543816779008 204469 148359 163134 -342222
832780543834991488 204228 148192 163266 -342220
832780543853204096 204022 147954 163230 -342185
832780543871416576 203760 147755 163200 -342215
832780543889629184 203581 147530 163251 -342195
832780543907841792 203462 147352 163222 -342228
832780543926054272 203330 147204 163158 -342234
832780543944266862 203282 147243 163154 -342240
832780543962478464 203236 147279 163198 -342273
832780543980690048 203253 147215 163174 -342201
832780543998901760 203362 147307 163256 -342169
832780544017113344 203463 147371 163200 -342220
832780544035324928 203600 147441 163222 -342227
832780544053536512 203701 147563 163160 -342259
832780544071748224 203787 147781 163193 -342254
832780544089959808 204026 147917 163190 -342215
832780544108171392 204189 148091 163144 -342283
832780544126382976 204332 148227 163156 -342274
832780544144594688 204449 148363 163165 -342276
832780544162806272 204621 148401 163195 -342252
832780544181017856 204738 148606 163229 -342180
832780544199229440 204755 148692 163205 -342234
832780544217441152 204760 148718 163200 -342232
832780544235652736 204853 148815 163194 -342209
832780544253864320 204849 148782 163136 -342250
832780544272075904 204889 148837 163138 -342205
832780544290287616 204908 148875 163098 -342245
832780544308499200 204910 148885 163196 -342276
832780544326710784 204941 148900 163242 -342281
832780544344922368 204879 148793 163183 -342295
832780544363134080 204971 148883 163191 -342195
832780544381345664 205001 148932 163195 -342231
832780544399557248 205111 149008 163160 -342235
832780544417768832 205194 149049 163183 -342231
832780544435980544 205332 149150 163208 -342206
832780544454192128 205417 149243 163216 -342245
832780544472403712 205572 149431 163200 -342262
832780544490615296 205827 149706 163210 -342243
832780544508827008 205916 149815 163224 -342212
832780544527038592 206112 149974 163259 -342222
832780544545250176 206234 150092 163204 -342237
832780544563461760 206413 150272 163232 -342214
832780544581673472 206507 150366 163180 -342209
832780544599885056 206578 150499 163207 -342195
832780544618096640 206657 150582 163248 -342176
832780544636308224 206679 150579 163233 -342239
832780544654519936 206565 150462 163182 -342213
832780544672731520 206522 150374 163221 -342148
832780544690943104 206262 150165 163189 -342236
832780544709154754 206122 150019 163195 -342240
832780544727367168 205897 149772 163157 -342239
832780544745579520 205655 149537 163231 -342195
832780544763791872 205347 149231 163254 -342195
832780544782004224 205092 148945 163211 -342229
832780544800216576 204740 148641 163224 -342280
832780544818428928 204466 148373 163240 -342225
832780544836641280 204215 148156 163193 -342235
832780544854853632 203966 147890 163240 -342255
832780544873065856 203738 147728 163180 -342284
832780544891278208 203626 147539 163207 -342196
832780544909490560 203477 147379 163219 -342196
832780544927702912 203369 147295 163297 -342180
832780544945915264 203289 147210 163188 -342248
832780544964127616 203236 147202 163209 -342274
832780544982339968 203337 147249 163228 -342214
832780545000552320 203375 147297 163242 -342246
832780545018764672 203394 147339 163158 -342260
832780545036977024 203585 147553 163200 -342219
832780545055189376 203720 147627 163236 -342195
832780545073401728 203917 147818 163194 -342197
832780545091614080 204001 147899 163174 -342283
832780545109826432 204153 148125 163175 -342270
832780545128038784 204370 148284 163179 -342225
832780545146251008 204521 148370 163183 -342226
832780545164463360 204679 148508 163198 -342157
832780545182675712 204715 148551 163164 -342195
832780545200888064 204801 148668 163194 -342197
832780545219100416 204849 148713 163176 -342199
832780545237312768 204857 148828 163096 -342220
832780545255525120 204968 148831 163178 -342202
832780545273737472 204904 148828 163169 -342254
832780545291949824 204854 148824 163144 -342217
832780545310162176 204920 148812 163208 -342206
832780545328374528 204934 148814 163219 -342237
832780545346586880 204924 148812 163162 -342240
832780545364799232 204968 148831 163207 -342223
832780545383011584 205001 148877 163134 -342251
832780545401223808 205070 149017 163227 -342230
832780545419436160 205178 149067 163199 -342232
832780545437648512 205297 149223 163149 -342244
832780545455860864 205396 149331 163149 -342215
832780545474073174 205490 149434 163161 -342205
832780545492284928 205706 149615 163143 -342289
832780545510496640 206005 149945 163105 -342167
832780545528708352 206129 150057 163171 -342237
832780545546919936 206287 150150 163209 -342206
832780545565131648 206379 150322 163178 -342196
832780545583343360 206491 150358 163175 -342261
832780545601555072 206595 150486 163180 -342192
832780545619766784 206682 150610 163237 -342194
832780545637978496 206674 150496 163203 -342256
832780545656190080 206592 150461 163160 -342256
832780545674401792 206499 150403 163192 -342228
832780545692613504 206312 150188 163209 -342266
832780545710825216 206140 150051 163220 -342255
832780545729036928 205905 149815 163191 -342205
832780545747248640 205626 149536 163165 -342222
832780545765460224 205309 149204 163202 -342208
832780545783671936 204990 148863 163194 -342217
832780545801883648 204685 148519 163192 -342261
832780545820095360 204409 148300 163176 -342293
832780545838307072 204205 148045 163126 -342274
832780545856518656 203950 147787 163209 -342242
832780545874730368 203812 147629 163271 -342209
832780545892942080 203533 147464 163237 -342242
832780545911153792 203491 147339 163223 -342244
832780545929365504 203371 147254 163234 -342235
832780545947577216 203335 147192 163229 -342223
832780545965788800 203309 147220 163212 -342250
832780545984000512 203271 147249 163211 -342211
832780546002212224 203355 147332 163227 -342200
832780546020423936 203510 147427 163209 -342247
832780546038635648 203577 147548 163180 -342257
832780546056847232 203790 147697 163215 -342216
832780546075058944 203936 147772 163140 -342221
832780546093270656 204082 147957 163153 -342265
832780546111482368 204191 148128 163132 -342249
832780546129694080 204372 148288 163198 -342228
832780546147905792 204512 148383 163228 -342215
832780546166117376 204695 148572 163219 -342178
832780546184329088 204747 148667 163190 -342213
832780546202540800 204803 148741 163177 -342228
832780546220752512 204866 148776 163144 -342247
832780546238964118 204943 148860 163185 -342225
832780546257177216 204944 148891 163200 -342183
832780546275390336 204892 148830 163180 -342235
832780546293603456 204989 148813 163217 -342206
832780546311816704 204997 148878 163242 -342219
832780546330029824 204961 148905 163242 -342268
832780546348242944 205038 148917 163164 -342236
832780546366456064 205057 148899 163197 -342185
832780546384669184 205085 149040 163234 -342209
832780546402882304 205098 149048 163186 -342240
832780546421095552 205167 149079 163205 -342236
832780546439308672 205303 149250 163187 -342214
832780546457521792 205370 149333 163161 -342223
832780546475734912 205578 149503 163228 -342208
832780546493948032 205731 149622 163141 -342232
832780546512161152 205869 149796 163155 -342250
832780546530374400 206110 149958 163177 -342192
832780546548587520 206243 150171 163217 -342181
832780546566800640 206399 150317 163233 -342197
832780546585013760 206581 150385 163268 -342145
832780546603226880 206678 150540 163209 -342200
832780546621440000 206656 150562 163206 -342263
832780546639653248 206679 150563 163222 -342213
832780546657866368 206560 150510 163197 -342192
832780546676079488 206538 150400 163217 -342166
832780546694292608 206274 150199 163178 -342236
832780546712505728 206059 150022 163156 -342212
832780546730718976 205804 149776 163156 -342222
832780546748932096 205545 149495 163239 -342223
832780546767145216 205287 149225 163237 -342223
832780546785358336 205054 148928 163214 -342244
832780546803571456 204752 148589 163148 -342255
832780546821784576 204503 148315 163225 -342214
832780546839997824 204183 148051 163219 -342212
832780546858210944 204013 147799 163183 -342214
832780546876424064 203792 147660 163196 -342174
832780546894637184 203591 147514 163264 -342181
832780546912850304 203478 147339 163191 -342233
832780546931063424 203406 147298 163203 -342197
832780546949276672 203311 147237 163215 -342193
832780546967489792 203297 147249 163215 -342163
832780546985702912 203408 147332 163190 -342204
832780547003916098 203462 147370 163192 -342211
832780547022128384 203546 147440 163183 -342203
832780547040340608 203625 147564 163185 -342195
832780547058552832 203734 147723 163232 -342203
832780547076764928 203946 147818 163151 -342247
832780547094977152 204133 148009 163220 -342189
832780547113189376 204257 148147 163254 -342229
832780547131401600 204422 148307 163233 -342204
832780547149613824 204545 148387 163170 -342204
832780547167825920 204667 148563 163153 -342209
832780547186038144 204780 148606 163200 -342231
832780547204250368 204853 148696 163219 -342234
832780547222462592 204850 148724 163142 -342229
832780547240674816 204945 148793 163190 -342246
832780547258886912 204921 148796 163195 -342222
832780547277099136 204930 148863 163186 -342221
832780547295311360 204937 148854 163196 -342235
832780547313523584 204869 148832 163124 -342242
832780547331735808 204982 148895 163197 -342183
832780547349947904 204978 148902 163149 -342163
832780547368160128 204985 148997 163196 -342210
832780547386372352 204995 148990 163231 -342176
832780547404584576 205067 149021 163190 -342235
832780547422796672 205219 149079 163169 -342220
832780547441008896 205326 149190 163227 -342244
832780547459221120 205483 149342 163236 -342212
832780547477433344 205629 149490 163189 -342264
832780547495645568 205933 149800 163171 -342221
832780547513857664 205997 149894 163186 -342213
832780547532069888 206084 150008 163170 -342234
832780547550282112 206217 150121 163197 -342244
832780547568494336 206412 150321 163194 -342268
832780547586706560 206595 150466 163198 -342208
832780547604918656 206734 150494 163183 -342213
832780547623130880 206699 150619 163207 -342240
832780547641343104 206701 150568 163197 -342223
832780547659555328 206665 150475 163215 -342179
832780547677767552 206491 150293 163239 -342219
832780547695979648 206342 150202 163258 -342233
832780547714191872 206126 149936 163169 -342230
832780547732404096 205890 149717 163159 -342271
832780547750616320 205647 149465 163170 -342189
832780547768828404 205319 149097 163239 -342213
832780547787040000 205078 148877 163241 -342147
832780547805251584 204795 148645 163283 -342203
832780547823463296 204540 148377 163245 -342200
832780547841674880 204331 148071 163268 -342198
832780547859886464 204028 147834 163285 -342257
832780547878098048 203780 147633 163247 -342200
832780547896309760 203625 147461 163206 -342215
832780547914521344 203570 147318 163186 -342195
832780547932732928 203494 147215 163196 -342175
832780547950944512 203391 147252 163170 -342250
832780547969156224 203377 147266 163204 -342235
832780547987367808 203447 147246 163186 -342191
832780548005579392 203547 147377 163212 -342216
832780548023790976 203653 147485 163187 -342208
832780548042002688 203724 147625 163166 -342204
832780548060214272 203852 147780 163219 -342288
832780548078425856 204065 147944 163226 -342219
832780548096637440 204240 148066 163228 -342213
832780548114849152 204386 148181 163221 -342226
832780548133060736 204542 148366 163200 -342230
832780548151272320 204652 148413 163227 -342217
832780548169483904 204780 148540 163234 -342230
832780548187695616 204814 148676 163227 -342223
832780548205907200 204937 148735 163264 -342189
832780548224118784 204978 148786 163216 -342254
832780548242330368 205055 148865 163229 -342197
832780548260542080 205046 148883 163200 -342164
832780548278753664 205045 148872 163261 -342178
832780548296965248 205035 148875 163191 -342244
832780548315176832 205131 148824 163205 -342186
832780548333388544 205139 148904 163202 -342209
832780548351600128 205099 148922 163225 -342259
832780548369811712 205130 148914 163180 -342256
832780548388023296 205200 148983 163226 -342271
832780548406235008 205270 149023 163222 -342246
832780548424446592 205335 149163 163224 -342192
832780548442658176 205424 149251 163192 -342191
832780548460869760 205520 149344 163208 -342238
832780548479081472 205767 149545 163284 -342184
832780548497293056 205848 149634 163221 -342200
832780548515504640 206036 149830 163250 -342220
832780548533716296 206236 149987 163200 -342254
832780548551928320 206367 150143 163198 -342184
832780548570140288 206484 150246 163160 -342214
832780548588352256 206682 150424 163223 -342215
832780548606564224 206765 150485 163205 -342279
832780548624776192 206803 150630 163225 -342211
832780548642988160 206806 150551 163225 -342200
832780548661200256 206748 150445 163241 -342193
832780548679412224 206541 150304 163263 -342246
832780548697624192 206320 150136 163277 -342235
832780548715836160 206156 149959 163260 -342186
832780548734048128 205928 149757 163212 -342171
832780548752260096 205646 149447 163190 -342182
832780548770472064 205378 149196 163238 -342142
832780548788684032 205105 148911 163205 -342138
832780548806896000 204811 148603 163208 -342178
832780548825107968 204526 148354 163229 -342191
832780548843319936 204266 148049 163198 -342259
832780548861532032 204080 147852 163207 -342218
832780548879744000 203856 147698 163280 -342166
832780548897955968 203719 147523 163280 -342181
832780548916167936 203563 147428 163213 -342212
832780548934379904 203542 147311 163250 -342230
832780548952591872 203504 147329 163230 -342198
832780548970803840 203491 147284 163230 -342220
832780548989015808 203500 147317 163265 -342215
832780549007227776 203655 147412 163192 -342244
832780549025439744 203673 147485 163169 -342228
832780549043651712 203771 147649 163179 -342228
832780549061863808 203975 147734 163222 -342184
832780549080075776 204042 147859 163175 -342197
832780549098287744 204142 148021 163137 -342197
832780549116499712 204393 148217 163210 -342227
832780549134711680 204504 148415 163212 -342194
832780549152923648 204655 148477 163248 -342219
832780549171135616 204801 148587 163202 -342278
832780549189347584 204943 148734 163271 -342223
832780549207559552 204972 148739 163259 -342237
832780549225771520 205061 148770 163242 -342238
832780549243983616 205080 148843 163233 -342238
832780549262195584 205100 148810 163164 -342271
832780549280407552 205128 148863 163192 -342245
832780549298619448 205101 148888 163251 -342186
832780549316831744 205083 148851 163185 -342286
832780549335044096 205064 148857 163154 -342250
832780549353256576 205137 148935 163224 -342230
832780549371468928 205147 148946 163268 -342238
832780549389681408 205183 149013 163224 -342242
832780549407893760 205263 149059 163239 -342262
832780549426106240 205321 149154 163210 -342285
832780549444318592 205447 149287 163216 -342249
832780549462531072 205594 149391 163195 -342254
832780549480743424 205779 149537 163238 -342253
832780549498955904 205925 149711 163195 -342270
832780549517168256 206085 149890 163183 -342222
832780549535380736 206220 150055 163208 -342219
832780549553593088 206453 150159 163237 -342185
832780549571805568 206510 150332 163180 -342225
832780549590017920 206696 150478 163238 -342196
832780549608230400 206760 150511 163177 -342262
832780549626442752 206767 150578 163194 -342234
832780549644655232 206773 150574 163194 -342232
832780549662867584 206695 150461 163200 -342262
832780549681080064 206548 150278 163162 -342218
832780549699292416 206357 150074 163137 -342225
832780549717504896 206189 149914 163170 -342257
832780549735717248 205882 149687 163164 -342245
832780549753929728 205654 149420 163180 -342243
832780549772142080 205401 149173 163210 -342155
832780549790354560 205057 148790 163147 -342191
832780549808566912 204758 148558 163169 -342216
832780549826779392 204491 148369 163183 -342225
832780549844991744 204238 148032 163246 -342266
832780549863204224 203986 147830 163187 -342256
832780549881416576 203813 147625 163194 -342265
832780549899629056 203683 147443 163233 -342208
832780549917841408 203610 147362 163251 -342219
832780549936053888 203478 147258 163246 -342237
832780549954266240 203441 147258 163206 -342185
832780549972478720 203472 147235 163223 -342201
832780549990691072 203580 147366 163171 -342210
832780550008903552 203555 147369 163140 -342191
832780550027115904 203679 147447 163207 -342217
832780550045328384 203773 147550 163182 -342239
832780550063540910 203898 147655 163240 -342208
832780550081753472 204110 147916 163263 -342231
832780550099966080 204299 148046 163236 -342246
832780550118178688 204387 148143 163177 -342231
832780550136391296 204545 148303 163217 -342212
832780550154603904 204652 148437 163141 -342239
832780550172816512 204797 148611 163237 -342263
832780550191029120 204903 148704 163230 -342222
832780550209241728 204977 148782 163230 -342203
832780550227454336 205048 148811 163245 -342244
832780550245666944 204996 148817 163244 -342229
832780550263879552 204998 148837 163202 -342234
832780550282092160 205097 148870 163242 -342277
832780550300304768 205087 148879 163244 -342216
832780550318517376 205052 148876 163243 -342299
832780550336729984 205072 148838 163146 -342250
832780550354942592 205163 148892 163200 -342261
832780550373155200 205172 148904 163214 -342221
832780550391367808 205235 148989 163194 -342285
832780550409580416 205303 149031 163168 -342210
832780550427793024 205371 149119 163210 -342248
832780550446005632 205527 149203 163157 -342220
832780550464218240 205621 149350 163141 -342217
832780550482430848 205792 149555 163240 -342225
832780550500643456 205877 149833 163185 -342245
832780550518856064 206086 149930 163225 -342231
832780550537068672 206228 150084 163225 -342179
832780550555281280 206416 150191 163213 -342235
832780550573493888 206549 150326 163226 -342261
832780550591706496 206639 150454 163162 -342231
832780550609919104 206759 150553 163224 -342250
832780550628131712 206771 150532 163164 -342268
832780550646344320 206783 150528 163203 -342298
832780550664557056 206656 150438 163178 -342218
832780550682769664 206518 150321 163168 -342230
832780550700982272 206324 150092 163213 -342237
832780550719194880 206158 149885 163194 -342211
832780550737407488 205911 149639 163171 -342231
832780550755620096 205671 149408 163196 -342210
832780550773832704 205341 149101 163245 -342198
832780550792045312 204995 148841 163180 -342254
832780550810257920 204755 148568 163239 -342237
832780550828470528 204485 148248 163204 -342265
832780550846683142 204205 148018 163172 -342183
832780550864894592 203979 147773 163157 -342230
832780550883106048 203808 147560 163160 -342212
832780550901317632 203614 147412 163156 -342244
832780550919529088 203540 147321 163153 -342236
832780550937740672 203527 147309 163183 -342206
832780550955952128 203449 147291 163179 -342214
832780550974163584 203463 147242 163199 -342246
832780550992375168 203509 147295 163168 -342253
832780551010586624 203661 147526 163248 -342228
832780551028798208 203740 147520 163219 -342229
832780551047009664 203911 147649 163249 -342212
832780551065221120 203984 147763 163162 -342202
832780551083432704 204158 147914 163158 -342203
832780551101644160 204297 148021 163258 -342233
832780551119855744 204465 148172 163214 -342229
832780551138067200 204598 148388 163230 -342180
832780551156278656 204726 148506 163193 -342194
832780551174490240 204822 148587 163181 -342239
832780551192701696 204903 148689 163213 -342208
832780551210913280 204983 148703 163145 -342219
832780551229124736 205058 148825 163197 -342202
832780551247336192 205093 148795 163155 -342248
832780551265547776 205134 148893 163214 -342236
832780551283759232 205169 148847 163237 -342232
832780551301970816 205125 148848 163239 -342240
832780551320182272 205134 148877 163180 -342227
832780551338393728 205184 148915 163284 -342194
832780551356605312 205154 148890 163194 -342212
832780551374816768 205213 148897 163259 -342219
832780551393028352 205206 148902 163215 -342256
832780551411239808 205292 149026 163199 -342213
832780551429451264 205369 149166 163164 -342198
832780551447662848 205509 149270 163217 -342186
832780551465874304 205763 149546 163203 -342249
832780551484085888 205824 149553 163185 -342329
832780551502297344 205964 149757 163227 -342272
832780551520508800 206157 149928 163197 -342196
832780551538720384 206293 150051 163196 -342200
832780551556931840 206425 150216 163186 -342183
832780551575143424 206581 150328 163195 -342188
832780551593354880 206681 150408 163207 -342193
832780551611566458 206846 150543 163234 -342237
832780551629777408 206867 150525 163216 -342291
832780551647988352 206821 150500 163237 -342249
832780551666199424 206668 150408 163206 -342250
832780551684410368 206594 150284 163224 -342206
832780551702621440 206425 150191 163213 -342166
832780551720832384 206100 149954 163213 -342215
832780551739043456 205888 149642 163204 -342247
832780551757254400 205608 149425 163197 -342276
832780551775465344 205327 149055 163170 -342253
832780551793676416 204975 148810 163230 -342255
832780551811887360 204691 148449 163168 -342257
832780551830098432 204437 148254 163107 -342267
832780551848309376 204172 147969 163173 -342239
832780551866520448 203958 147806 163194 -342254
832780551884731392 203867 147675 163266 -342166
832780551902942336 203611 147483 163255 -342234
832780551921153408 203514 147371 163220 -342217
832780551939364352 203458 147281 163217 -342237
832780551957575424 203411 147259 163182 -342239
832780551975786368 203391 147183 163182 -342221
832780551993997440 203462 147279 163145 -342245
832780552012208384 203544 147394 163210 -342239
832780552030419328 203718 147443 163188 -342193
832780552048630400 203862 147620 163200 -342239
832780552066841344 203915 147740 163192 -342219
832780552085052416 204143 147899 163207 -342269
832780552103263360 204350 148107 163194 -342182
832780552121474432 204511 148288 163193 -342220
832780552139685376 204695 148402 163264 -342192
832780552157896320 204744 148507 163217 -342212
832780552176107392 204829 148606 163228 -342237
832780552194318336 204935 148719 163241 -342221
832780552212529408 204964 148823 163165 -342201
832780552230740352 204965 148791 163189 -342216
832780552248951424 205079 148836 163196 -342222
832780552267162368 205126 148902 163221 -342278
832780552285373312 205086 148878 163172 -342269
832780552303584384 205084 148934 163216 -342264
832780552321795328 205086 148870 163178 -342235
832780552340006400 205063 148917 163168 -342219
832780552358217344 205148 148930 163202 -342191
832780552376428408 205159 148991 163188 -342186
832780552394640768 205270 149092 163222 -342162
832780552412853120 205281 149189 163278 -342253
832780552431065472 205444 149232 163263 -342231
832780552449277824 205531 149357 163231 -342188
832780552467490176 205676 149468 163247 -342192
832780552485702528 205821 149613 163229 -342212
832780552503914880 205997 149751 163257 -342181
832780552522127232 206192 149997 163289 -342214
832780552540339456 206353 150168 163302 -342208
832780552558551808 206436 150258 163259 -342226
832780552576764160 206641 150406 163241 -342202
832780552594976512 206743 150508 163246 -342219
832780552613188864 206897 150585 163282 -342188
832780552631401216 206836 150624 163259 -342233
832780552649613568 206806 150619 163262 -342166
832780552667825920 206761 150434 163236 -342208
832780552686038272 206514 150318 163241 -342240
832780552704250624 206395 150117 163223 -342218
832780552722462976 206130 149890 163250 -342181
832780552740675328 205885 149661 163199 -342249
832780552758887680 205600 149349 163214 -342185
832780552777100032 205308 149094 163210 -342183
832780552795312384 205000 148772 163239 -342269
832780552813524608 204723 148498 163213 -342248
832780552831736960 204490 148210 163190 -342240
832780552849949312 204301 147983 163257 -342175
832780552868161664 204012 147850 163215 -342184
832780552886374016 203852 147641 163279 -342145
832780552904586368 203693 147444 163244 -342197
832780552922798720 203589 147393 163254 -342200
832780552941011072 203479 147346 163205 -342196
832780552959223424 203430 147254 163155 -342211
832780552977435776 203467 147295 163225 -342225
832780552995648128 203523 147303 163221 -342249
832780553013860480 203686 147413 163245 -342189
832780553032072832 203748 147524 163196 -342211
832780553050285184 203871 147681 163225 -342184
832780553068497408 204022 147840 163216 -342196
832780553086709760 204208 148017 163239 -342200
832780553104922112 204349 148109 163236 -342187
832780553123134464 204556 148262 163213 -342133
832780553141346828 204654 148400 163199 -342159
832780553159559296 204712 148473 163217 -342217
832780553177771776 204917 148666 163213 -342199
832780553195984256 204966 148743 163205 -342233
832780553214196608 205041 148789 163241 -342247
832780553232409088 205043 148828 163219 -342243
832780553250621568 205132 148879 163234 -342232
832780553268834048 205109 148891 163224 -342199
832780553287046400 205099 148861 163288 -342244
832780553305258880 205089 148949 163239 -342212
832780553323471360 205119 148882 163267 -342237
832780553341683840 205142 148922 163223 -342227
832780553359896320 205159 148896 163227 -342239
832780553378108672 205251 148975 163214 -342210
832780553396321152 205315 149058 163246 -342202
832780553414533632 205337 149169 163280 -342206
832780553432746112 205376 149208 163250 -342262
832780553450958592 205506 149331 163267 -342247
832780553469170944 205709 149403 163288 -342176
832780553487383424 205850 149579 163292 -342226
832780553505595904 206023 149732 163283 -342233
832780553523808384 206177 149872 163198 -342240
832780553542020736 206349 150112 163303 -342194
832780553560233216 206553 150313 163314 -342191
832780553578445696 206673 150410 163285 -342155
832780553596658176 206787 150547 163272 -342172
832780553614870656 206815 150606 163225 -342232
832780553633083008 206896 150708 163271 -342178
832780553651295488 206819 150578 163266 -342223
832780553669507968 206704 150464 163229 -342218
832780553687720448 206546 150239 163175 -342227
832780553705932800 206316 150147 163176 -342230
832780553724145280 206106 149886 163259 -342185
832780553742357760 205844 149614 163285 -342219
832780553760570240 205588 149348 163230 -342307
832780553778782720 205267 149084 163188 -342255
832780553796995072 204921 148737 163183 -342249
832780553815207552 204720 148485 163246 -342220
832780553833420032 204447 148192 163239 -342210
832780553851632512 204234 147995 163301 -342153
832780553869844864 204016 147765 163292 -342188
832780553888057344 203860 147603 163208 -342185
832780553906269816 203618 147472 163198 -342214
832780553924483712 203529 147349 163158 -342274
832780553942697600 203496 147226 163144 -342193
832780553960911360 203488 147222 163152 -342211
832780553979125248 203543 147222 163197 -342229
832780553997339136 203587 147313 163226 -342216
832780554015553024 203652 147383 163241 -342186
832780554033766784 203770 147499 163259 -342202
832780554051980672 203887 147598 163213 -342232
832780554070194560 204013 147769 163220 -342219
832780554088408320 204200 148003 163267 -342213
832780554106622208 204335 148141 163240 -342235
832780554124836096 204516 148282 163214 -342171
832780554143049984 204686 148449 163227 -342202
832780554161263744 204788 148580 163241 -342226
832780554179477632 204933 148652 163238 -342200
832780554197691520 204979 148726 163267 -342201
832780554215905408 205099 148779 163202 -342226
832780554234119168 205100 148833 163226 -342203
832780554252333056 205146 148912 163217 -342233
832780554270546944 205140 148923 163234 -342209
832780554288760704 205151 148917 163244 -342178
832780554306974592 205143 148882 163210 -342205
832780554325188480 205180 148941 163259 -342218
832780554343402368 205119 148873 163204 -342203
832780554361616128 205187 148956 163222 -342231
832780554379830016 205176 148989 163188 -342232
832780554398043904 205266 149035 163229 -342212
832780554416257664 205373 149106 163189 -342228
832780554434471552 205459 149236 163155 -342206
832780554452685440 205610 149382 163219 -342204
832780554470899328 205836 149640 163188 -342214
832780554489113088 205961 149718 163197 -342179
832780554507326976 206054 149836 163214 -342166
832780554525540864 206173 150048 163155 -342196
832780554543754624 206330 150214 163172 -342216
832780554561968512 206532 150309 163176 -342278
832780554580182400 206662 150434 163172 -342222
832780554598396288 206752 150503 163124 -342226
832780554616610048 206807 150603 163193 -342233
832780554634823936 206788 150630 163179 -342194
832780554653037824 206772 150583 163233 -342233
832780554671251584 206699 150394 163202 -342187
832780554689465456 206607 150312 163242 -342249
832780554707678336 206353 150107 163195 -342188
832780554725891200 206102 149884 163246 -342191
832780554744104064 205818 149639 163247 -342221
832780554762316928 205561 149309 163272 -342210
832780554780529792 205253 149048 163216 -342205
832780554798742656 204990 148761 163260 -342218
832780554816955392 204681 148539 163250 -342234
832780554835168256 204429 148286 163236 -342171
832780554853381120 204157 148014 163214 -342198
832780554871593984 203986 147729 163189 -342218
832780554889806848 203826 147530 163186 -342223
832780554908019712 203647 147411 163228 -342232
832780554926232576 203529 147322 163227 -342225
832780554944445440 203536 147359 163264 -342231
832780554962658304 203548 147276 163286 -342187
832780554980871168 203642 147274 163222 -342159
832780554999083904 203651 147355 163209 -342161
832780555017296768 203732 147490 163269 -342161
832780555035509632 203847 147611 163236 -342129
832780555053722496 203914 147718 163278 -342219
832780555071935360 204062 147834 163230 -342186
832780555090148224 204251 148035 163244 -342165
832780555108361088 204364 148165 163189 -342183
832780555126573952 204562 148319 163193 -342184
832780555144786816 204719 148407 163205 -342213
832780555162999680 204825 148580 163199 -342204
832780555181212544 204880 148720 163224 -342164
832780555199425280 205009 148808 163242 -342194
832780555217638144 205066 148820 163275 -342206
832780555235851008 205133 148952 163296 -342220
832780555254063872 205116 148851 163179 -342195
832780555272276736 205140 148923 163178 -342184
832780555290489600 205164 148946 163260 -342193
832780555308702464 205168 148900 163187 -342195
832780555326915328 205160 148927 163190 -342264
832780555345128192 205185 148955 163221 -342212
832780555363341056 205164 148956 163251 -342177
832780555381553792 205229 149013 163299 -342187
832780555399766656 205321 149098 163290 -342219
832780555417979520 205438 149164 163261 -342214
832780555436192384 205523 149287 163297 -342204
832780555454405228 205625 149412 163290 -342149
832780555472617984 205768 149506 163268 -342151
832780555490830720 205845 149689 163246 -342184
832780555509043456 206015 149802 163209 -342186
832780555527256064 206212 150045 163248 -342222
832780555545468800 206441 150158 163242 -342209
832780555563681536 206573 150303 163241 -342212
832780555581894272 206622 150403 163269 -342244
832780555600106880 206759 150492 163292 -342197
832780555618319616 206870 150627 163221 -342202
832780555636532352 206895 150642 163277 -342125
832780555654745088 206807 150582 163284 -342192
832780555672957696 206685 150368 163277 -342223
832780555691170432 206481 150236 163213 -342200
832780555709383168 206317 150064 163276 -342203
832780555727595904 206059 149865 163254 -342221
832780555745808640 205819 149588 163281 -342182
832780555764021248 205515 149292 163210 -342222
832780555782233984 205274 149053 163303 -342151
832780555800446720 204912 148739 163203 -342196
832780555818659456 204656 148521 163297 -342184
832780555836872064 204350 148228 163200 -342188
832780555855084800 204167 147997 163172 -342182
832780555873297536 203900 147765 163271 -342198
832780555891510272 203782 147524 163209 -342191
832780555909722880 203652 147369 163226 -342228
832780555927935616 203525 147352 163268 -342159
832780555946148352 203518 147303 163255 -342180
832780555964361088 203496 147281 163272 -342204
832780555982573824 203567 147301 163259 -342233
832780556000786432 203591 147364 163191 -342195
832780556018999168 203719 147443 163145 -342203
832780556037211904 203870 147636 163228 -342114
832780556055424640 203978 147736 163196 -342185
832780556073637248 204091 147888 163142 -342159
832780556091849984 204264 148038 163229 -342201
832780556110062720 204417 148209 163200 -342195
832780556128275456 204522 148343 163200 -342200
832780556146488064 204653 148501 163290 -342217
832780556164700800 204803 148655 163282 -342194
832780556182913536 204899 148706 163315 -342188
832780556201126272 205024 148789 163283 -342163
832780556219338898 205051 148931 163284 -342145
832780556237551360 205133 148909 163240 -342210
832780556255763840 205138 148883 163227 -342219
832780556273976192 205172 148942 163237 -342218
832780556292188672 205170 148885 163182 -342231
832780556310401152 205179 148927 163264 -342169
832780556328613504 205140 148945 163238 -342175
832780556346825984 205170 148909 163250 -342197
832780556365038336 205224 148975 163255 -342195
832780556383250816 205278 149038 163233 -342167
832780556401463296 205316 149040 163250 -342180
832780556419675648 205411 149149 163223 -342223
832780556437888128 205539 149187 163195 -342210
832780556456100608 205532 149426 163241 -342225
832780556474312960 205760 149559 163269 -342239
832780556492525440 205924 149682 163278 -342235
832780556510737792 206076 149822 163257 -342270
832780556528950272 206192 149992 163192 -342231
832780556547162752 206370 150132 163238 -342215
832780556565375104 206554 150330 163242 -342235
832780556583587584 206651 150430 163207 -342252
832780556601800064 206716 150503 163170 -342243
832780556620012416 206862 150586 163208 -342247
832780556638224896 206822 150552 163192 -342233
832780556656437248 206746 150590 163256 -342239
832780556674649728 206664 150451 163232 -342230
832780556692862208 206473 150308 163240 -342201
832780556711074560 206237 150096 163230 -342191
832780556729287040 206032 149850 163243 -342211
832780556747499520 205829 149544 163228 -342159
832780556765711872 205497 149224 163224 -342222
832780556783924352 205199 149020 163222 -342162
832780556802136832 204898 148730 163228 -342200
832780556820349184 204642 148432 163229 -342222
832780556838561664 204357 148130 163224 -342220
832780556856774016 204174 147927 163236 -342189
832780556874986496 203928 147683 163228 -342212
832780556893198976 203808 147599 163254 -342184
832780556911411328 203620 147422 163207 -342299
832780556929623808 203491 147335 163217 -342248
832780556947836288 203425 147297 163151 -342226
832780556966048640 203482 147270 163238 -342246
832780556984261120 203552 147258 163247 -342255
832780557002473502 203652 147358 163200 -342255
832780557020686080 203743 147524 163268 -342197
832780557038898688 203787 147612 163240 -342189
832780557057111296 203956 147736 163244 -342232
832780557075323904 204062 147849 163191 -342286
832780557093536512 204290 148037 163224 -342197
832780557111749120 204455 148150 163265 -342172
832780557129961728 204604 148316 163187 -342216
832780557148174208 204712 148482 163233 -342252
832780557166386816 204845 148607 163256 -342218
832780557184599424 204921 148672 163225 -342228
832780557202812032 205024 148781 163242 -342196
832780557221024640 205003 148833 163250 -342257
832780557239237248 205091 148848 163179 -342218
832780557257449856 205088 148865 163221 -342166
832780557275662464 205086 148909 163192 -342234
832780557293875072 205111 148877 163225 -342191
832780557312087680 205147 148917 163204 -342209
832780557330300288 205220 148915 163267 -342189
832780557348512896 205196 148940 163251 -342219
832780557366725376 205240 148951 163234 -342162
832780557384937984 205291 148981 163192 -342163
832780557403150592 205353 149112 163231 -342155
832780557421363200 205410 149191 163229 -342210
832780557439575808 205514 149279 163226 -342188
832780557457788416 205642 149349 163222 -342229
832780557476001024 205713 149502 163170 -342214
832780557494213632 205881 149734 163224 -342218
832780557512426240 206085 149913 163259 -342161
832780557530638848 206292 150023 163243 -342181
832780557548851456 206475 150203 163219 -342209
832780557567064064 206542 150390 163248 -342202
832780557585276544 206689 150450 163245 -342203
832780557603489152 206798 150571 163247 -342213
832780557621701760 206858 150604 163254 -342197
832780557639914368 206869 150550 163361 -342174
832780557658126976 206849 150518 163258 -342210
832780557676339584 206584 150363 163185 -342244
832780557694552192 206423 150209 163189 -342232
832780557712764800 206280 150034 163205 -342200
832780557730977408 206035 149832 163233 -342197
832780557749190016 205780 149523 163223 -342184
832780557767402592 205540 149235 163226 -342206
832780557785615616 205187 148946 163247 -342251
832780557803828608 204844 148621 163263 -342254
832780557822041600 204586 148460 163288 -342236
832780557840254464 204328 148139 163246 -342229
832780557858467456 204148 147892 163199 -342227
832780557876680448 203960 147707 163262 -342225
832780557894893440 203836 147497 163265 -342191
832780557913106304 203654 147374 163277 -342246
832780557931319296 203601 147335 163241 -342222
832780557949532288 203568 147244 163265 -342204
832780557967745280 203519 147319 163264 -342217
832780557985958144 203536 147309 163205 -342232
832780558004171136 203625 147385 163188 -342237
832780558022384128 203684 147467 163254 -342221
832780558040597120 203830 147614 163210 -342216
832780558058809984 203976 147775 163263 -342231
832780558077022976 204124 147869 163237 -342193
832780558095235968 204277 148094 163283 -342204
832780558113448960 204497 148240 163277 -342188
832780558131661824 204557 148345 163219 -342199
832780558149874816 204733 148535 163237 -342227
832780558168087808 204820 148633 163223 -342182
832780558186300800 204888 148736 163210 -342140
832780558204513664 204929 148753 163195 -342255
832780558222726656 205046 148866 163224 -342233
832780558240939648 205085 148893 163262 -342191
832780558259152640 205128 148970 163269 -342192
832780558277365504 205171 148964 163275 -342152
832780558295578496 205159 148928 163275 -342170
832780558313791488 205162 148896 163231 -342206
832780558332004480 205186 148928 163245 -342153
832780558350217344 205202 148930 163216 -342246
832780558368430336 205263 148992 163237 -342201
832780558386643328 205246 148990 163243 -342203
832780558404856320 205337 149130 163219 -342199
832780558423069184 205425 149151 163236 -342196
832780558441282176 205451 149226 163166 -342244
832780558459495168 205582 149318 163170 -342273
832780558477708160 205748 149494 163209 -342247
832780558495921024 205937 149649 163176 -342240
832780558514134016 206078 149783 163180 -342254
832780558532346944 206254 150052 163212 -342201
832780558550559360 206450 150221 163258 -342243
832780558568771840 206582 150327 163275 -342234
832780558586984320 206725 150502 163278 -342208
832780558605196672 206837 150576 163185 -342221
832780558623409152 206829 150673 163223 -342236
832780558641621632 206783 150608 163226 -342263
832780558659834112 206760 150527 163193 -342183
832780558678046464 206616 150368 163228 -342251
832780558696258944 206508 150247 163277 -342215
832780558714471424 206244 149965 163228 -342215
832780558732683904 206014 149819 163256 -342157
832780558750896384 205734 149488 163233 -342220
832780558769108736 205505 149243 163314 -342200
832780558787321216 205198 148940 163208 -342199
832780558805533696 204831 148618 163200 -342284
832780558823746176 204589 148363 163249 -342245
832780558841958656 204316 148103 163180 -342197
832780558860171008 204164 147829 163206 -342211
832780558878383488 203924 147601 163192 -342250
832780558896595968 203731 147484 163213 -342238
832780558914808448 203620 147361 163180 -342244
832780558933020800 203535 147270 163220 -342239
832780558951233280 203515 147227 163188 -342236
832780558969445760 203525 147232 163266 -342200
832780558987658240 203602 147351 163276 -342198
832780559005870720 203626 147405 163265 -342205
832780559024083072 203740 147514 163261 -342163
832780559042295552 203831 147644 163204 -342198
832780559060508032 203990 147764 163255 -342210
832780559078720512 204154 147932 163275 -342199
832780559096932864 204351 148104 163254 -342210
832780559115145344 204484 148227 163271 -342238
832780559133357824 204549 148353 163229 -342294
832780559151570304 204719 148508 163221 -342260
832780559169782784 204856 148652 163246 -342270
832780559187995136 204952 148695 163242 -342254
832780559206207616 204974 148764 163217 -342195
832780559224420096 204996 148798 163180 -342235
832780559242632576 205110 148883 163213 -342182
832780559260844928 205146 148951 163249 -342169
832780559279057408 205129 148896 163226 -342236
832780559297269930 205162 148873 163272 -342234
832780559315482880 205157 148945 163260 -342220
832780559333695872 205143 148935 163289 -342202
832780559351908992 205195 149002 163314 -342204
832780559370121984 205202 148974 163293 -342249
832780559388334976 205252 149020 163247 -342231
832780559406548096 205296 149173 163324 -342248
832780559424761088 205408 149201 163231 -342209
832780559442974080 205489 149284 163211 -342228
832780559461187200 205779 149614 163207 -342200
832780559479400192 205853 149606 163222 -342242
832780559497613184 206007 149795 163257 -342218
832780559515826304 206132 149882 163238 -342231
832780559534039296 206340 150060 163181 -342200
832780559552252288 206478 150197 163212 -342228
832780559570465408 206599 150345 163222 -342220
832780559588678400 206698 150464 163214 -342215
832780559606891392 206816 150585 163249 -342141
832780559625104512 206869 150606 163210 -342167
832780559643317504 206811 150628 163261 -342181
832780559661530496 206701 150486 163246 -342195
832780559679743616 206578 150394 163186 -342192
832780559697956608 206422 150201 163180 -342254
832780559716169600 206166 149956 163213 -342228
832780559734382592 205961 149727 163236 -342184
832780559752595712 205691 149485 163187 -342211
832780559770808704 205440 149164 163227 -342239
832780559789021696 205189 148928 163236 -342237
832780559807234816 204815 148648 163206 -342244
832780559825447808 204563 148295 163239 -342228
832780559843660800 204276 148099 163247 -342220
832780559861873920 204125 147905 163245 -342216
832780559880086912 203860 147665 163211 -342213
832780559898299904 203717 147494 163234 -342227
832780559916513024 203619 147341 163180 -342202
832780559934726016 203561 147304 163203 -342199
832780559952939008 203549 147246 163175 -342257
832780559971152128 203669 147390 163249 -342238
832780559989365120 203584 147372 163236 -342174
832780560007578112 203661 147421 163244 -342172
832780560025791232 203712 147458 163243 -342217
832780560044004224 203841 147582 163263 -342238
832780560062217342 203950 147758 163229 -342215
832780560080429056 204092 147920 163181 -342259
832780560098640768 204265 148108 163172 -342212
832780560116852608 204467 148276 163206 -342196
832780560135064320 204564 148377 163256 -342221
832780560153276160 204713 148515 163243 -342188
832780560171487872 204852 148591 163243 -342244
832780560189699584 205005 148742 163312 -342204
832780560207911424 205055 148814 163260 -342163
832780560226123136 205038 148860 163232 -342220
832780560244334976 205085 148860 163240 -342214
832780560262546688 205126 148961 163282 -342197
832780560280758400 205191 148929 163215 -342242
832780560298970240 205213 148996 163288 -342194
832780560317181952 205159 148951 163205 -342210
832780560335393664 205190 148918 163228 -342216
832780560353605504 205191 148950 163313 -342197
832780560371817216 205264 148943 163265 -342199
832780560390029056 205271 148964 163249 -342226
832780560408240768 205360 149139 163231 -342191
832780560426452480 205446 149154 163162 -342193
832780560444664320 205647 149322 163219 -342198
832780560462876032 205760 149434 163265 -342168
832780560481087872 206010 149747 163251 -342248
832780560499299584 206059 149769 163233 -342195
832780560517511296 206192 149932 163286 -342222
832780560535723136 206321 150054 163260 -342169
832780560553934848 206466 150233 163249 -342208
832780560572146688 206554 150334 163228 -342244
832780560590358400 206721 150474 163286 -342191
832780560608570112 206827 150580 163246 -342181
832780560626781952 206904 150608 163296 -342168
832780560644993664 206826 150589 163247 -342209
832780560663205376 206800 150487 163264 -342188
832780560681417216 206610 150383 163236 -342202
832780560699628928 206468 150221 163266 -342185
832780560717840768 206175 149974 163256 -342218
832780560736052480 205951 149741 163265 -342229
832780560754264192 205727 149488 163228 -342276
832780560772476032 205487 149152 163182 -342198
832780560790687744 205139 148880 163250 -342222
832780560808899584 204866 148727 163244 -342203
832780560827111338 204539 148403 163239 -342206
832780560845324672 204319 148126 163223 -342167
832780560863538048 204146 147895 163225 -342136
832780560881751296 203962 147700 163249 -342162
832780560899964672 203747 147508 163230 -342233
832780560918177920 203608 147391 163224 -342255
832780560936391296 203538 147250 163182 -342331
832780560954604672 203589 147315 163268 -342179
832780560972817920 203539 147303 163237 -342171
832780560991031296 203682 147525 163272 -342179
832780561009244544 203728 147488 163224 -342146
832780561027457920 203770 147574 163198 -342203
832780561045671296 203915 147705 163291 -342171
832780561063884544 204072 147837 163298 -342216
832780561082097920 204145 147976 163259 -342233
832780561100311168 204280 148129 163229 -342210
832780561118524544 204491 148229 163260 -342202
832780561136737920 204681 148388 163208 -342203
832780561154951168 204781 148591 163246 -342228
832780561173164544 204855 148616 163241 -342185
832780561191377792 204976 148757 163224 -342197
832780561209591168 205002 148791 163157 -342221
832780561227804416 205138 148839 163203 -342200
832780561246017792 205214 148893 163275 -342176
832780561264231168 205171 148930 163272 -342203
832780561282444416 205168 148943 163263 -342204
832780561300657792 205149 148895 163264 -342161
832780561318871040 205134 148873 163262 -342234
832780561337084416 205148 148909 163245 -342174
832780561355297792 205188 148943 163269 -342209
832780561373511040 205223 149031 163285 -342217
832780561391724416 205306 149079 163273 -342203
832780561409937664 205379 149144 163294 -342168
832780561428151040 205473 149260 163276 -342137
832780561446364416 205643 149370 163239 -342195
832780561464577664 205711 149461 163161 -342215
832780561482791040 205811 149618 163266 -342239
832780561501004288 206051 149711 163281 -342232
832780561519217664 206371 150020 163305 -342194
832780561537431040 206446 150153 163293 -342219
832780561555644288 206553 150243 163266 -342201
832780561573857664 206672 150380 163306 -342242
832780561592070948 206824 150466 163269 -342176
832780561610284160 206867 150568 163276 -342197
832780561628497408 206923 150630 163247 -342191
832780561646710656 206874 150582 163241 -342146
832780561664923904 206763 150452 163226 -342212
832780561683137152 206635 150330 163251 -342248
832780561701350400 206415 150177 163221 -342226
832780561719563648 206221 149975 163240 -342191
832780561737776896 205955 149710 163217 -342223
832780561755990144 205647 149429 163207 -342221
832780561774203392 205408 149174 163266 -342180
832780561792416640 205063 148864 163249 -342212
832780561810629888 204778 148503 163216 -342212
832780561828843136 204538 148303 163240 -342213
832780561847056384 204274 148070 163187 -342248
832780561865269632 204031 147815 163195 -342254
832780561883482880 203805 147567 163267 -342243
832780561901696128 203723 147460 163223 -342210
832780561919909376 203542 147306 163221 -342266
832780561938122624 203432 147237 163179 -342247
832780561956335872 203507 147255 163226 -342243
832780561974549120 203565 147311 163247 -342203
832780561992762368 203600 147372 163228 -342191
832780562010975616 203738 147520 163280 -342165
832780562029188864 203805 147532 163293 -342244
832780562047402112 203910 147608 163242 -342235
832780562065615360 204031 147763 163243 -342251
832780562083828608 204285 147920 163254 -342210
832780562102041856 204359 148103 163265 -342204
832780562120255104 204503 148227 163291 -342235
832780562138468352 204601 148394 163263 -342201
832780562156681600 204759 148489 163248 -342219
832780562174894848 204897 148575 163187 -342220
832780562193108096 205023 148786 163278 -342219
832780562211321344 205050 148879 163266 -342169
832780562229534592 205030 148832 163221 -342231
832780562247747840 205137 148871 163248 -342189
832780562265961088 205136 148887 163278 -342204
832780562284174336 205122 148866 163213 -342228
832780562302387584 205216 148943 163230 -342216
832780562320600832 205166 148891 163208 -342208
832780562338814080 205202 148944 163217 -342199
832780562357027328 205097 148910 163187 -342221
832780562375240648 205215 148955 163233 -342174
832780562393453568 205265 149030 163248 -342226
832780562411666432 205357 149132 163257 -342217
832780562429879296 205408 149167 163233 -342264
832780562448092160 205558 149326 163257 -342184
832780562466305024 205873 149672 163295 -342215
832780562484517888 205896 149674 163256 -342213
832780562502730624 206085 149805 163259 -342228
832780562520943488 206221 150023 163299 -342195
832780562539156352 206392 150113 163251 -342222
832780562557369216 206501 150206 163279 -342188
832780562575582080 206670 150401 163273 -342208
832780562593794944 206824 150560 163295 -342160
832780562612007808 206853 150593 163250 -342159
832780562630220672 206911 150634 163249 -342219
832780562648433536 206856 150570 163263 -342210
832780562666646400 206679 150446 163266 -342200
832780562684859136 206575 150297 163242 -342221
832780562703072000 206496 150220 163258 -342177
832780562721284864 206128 149954 163225 -342238
832780562739497728 205959 149690 163237 -342192
832780562757710592 205646 149491 163283 -342218
832780562775923456 205421 149185 163302 -342179
832780562794136320 205092 148871 163203 -342243
832780562812349184 204858 148601 163280 -342181
832780562830562048 204574 148300 163256 -342182
832780562848774912 204293 148083 163262 -342201
832780562866987776 203984 147851 163231 -342237
832780562885200512 203886 147653 163261 -342126
832780562903413376 203701 147456 163232 -342208
832780562921626240 203575 147351 163191 -342215
832780562939839104 203547 147301 163259 -342182
832780562958051968 203528 147308 163286 -342203
832780562976264832 203630 147407 163246 -342249
832780562994477696 203666 147456 163299 -342204
832780563012690560 203611 147459 163242 -342254
832780563030903424 203761 147499 163197 -342218
832780563049116288 203857 147645 163196 -342240
832780563067329024 204023 147830 163241 -342185
832780563085541888 204228 148020 163278 -342199
832780563103754752 204495 148145 163337 -342118
832780563121967616 204513 148310 163317 -342142
832780563140180420 204645 148436 163294 -342170
832780563158392832 204778 148512 163286 -342197
832780563176605184 204937 148674 163242 -342214
832780563194817664 204972 148761 163255 -342215
832780563213030016 205053 148838 163228 -342177
832780563231242496 205114 148931 163301 -342185
832780563249454848 205184 148881 163284 -342178
832780563267667328 205163 148927 163246 -342192
832780563285879680 205222 148941 163289 -342162
832780563304092160 205183 148888 163239 -342191
832780563322304512 205210 148926 163247 -342189
832780563340516992 205131 148921 163216 -342188
832780563358729344 205211 148976 163247 -342234
832780563376941824 205241 149004 163294 -342202
832780563395154176 205279 149071 163275 -342226
832780563413366656 205425 149179 163264 -342189
832780563431579008 205511 149237 163265 -342178
832780563449791488 205616 149408 163266 -342188
832780563468003840 205703 149446 163195 -342214
832780563486216320 205864 149634 163254 -342223
832780563504428672 206021 149792 163225 -342172
832780563522641152 206211 149964 163225 -342181
832780563540853504 206397 150181 163272 -342109
832780563559065984 206494 150232 163222 -342204
832780563577278336 206700 150430 163293 -342225
832780563595490816 206810 150521 163292 -342181
832780563613703168 206829 150633 163293 -342231
832780563631915648 206860 150625 163248 -342203
832780563650128000 206817 150554 163307 -342169
832780563668340480 206776 150505 163303 -342183
832780563686552832 206626 150316 163240 -342205
832780563704765312 206362 150159 163283 -342171
832780563722977664 206117 149940 163310 -342205
832780563741190144 205883 149681 163325 -342213
832780563759402496 205641 149471 163357 -342209
832780563777614976 205335 149156 163282 -342233
832780563795827328 205057 148819 163323 -342183
832780563814039808 204758 148560 163265 -342175
832780563832252160 204460 148264 163187 -342242
832780563850464640 204259 148008 163208 -342193
832780563868676992 204103 147865 163267 -342177
832780563886889472 203906 147679 163220 -342153
832780563905101882 203716 147553 163305 -342194
832780563923315200 203599 147404 163241 -342158
832780563941528576 203534 147287 163198 -342252
832780563959741952 203555 147320 163275 -342166
832780563977955328 203508 147252 163261 -342212
832780563996168704 203647 147360 163277 -342184
832780564014381952 203788 147585 163267 -342240
832780564032595328 203874 147618 163264 -342219
832780564050808704 203931 147663 163273 -342233
832780564069022080 204097 147818 163248 -342210
832780564087235456 204270 148031 163291 -342204
832780564105448832 204337 148144 163296 -342188
832780564123662208 204535 148385 163341 -342181
832780564141875584 204729 148521 163334 -342166
832780564160088832 204786 148621 163272 -342184
832780564178302208 204911 148673 163276 -342168
832780564196515584 204959 148799 163254 -342198
832780564214728960 205092 148914 163307 -342192
832780564232942336 205115 148897 163262 -342217
832780564251155712 205174 148910 163221 -342187
832780564269369088 205199 148859 163255 -342220
832780564287582464 205164 148891 163233 -342242
832780564305795712 205182 148895 163237 -342191
832780564324009088 205153 148888 163158 -342202
832780564342222464 205142 148967 163257 -342206
832780564360435840 205248 148985 163247 -342204
832780564378649216 205248 148984 163237 -342199
832780564396862592 205305 149058 163241 -342180
832780564415075968 205369 149152 163275 -342108
832780564433289344 205507 149234 163238 -342151
832780564451502592 205620 149385 163211 -342172
832780564469715968 205779 149571 163213 -342174
832780564487929344 205924 149710 163239 -342166
832780564506142720 206040 149755 163169 -342215
832780564524356096 206379 150158 163251 -342170
832780564542569472 206416 150191 163236 -342219
832780564560782848 206521 150292 163243 -342236
832780564578996224 206656 150449 163257 -342186
832780564597209472 206794 150581 163255 -342176
832780564615422848 206886 150651 163237 -342210
832780564633636224 206862 150572 163199 -342233
832780564651849600 206789 150533 163223 -342232
832780564670063016 206698 150476 163239 -342239
832780564688275840 206588 150339 163237 -342187
832780564706488704 206377 150153 163219 -342223
832780564724701696 206124 149878 163226 -342204
832780564742914560 205906 149663 163265 -342226
832780564761127552 205617 149391 163310 -342187
832780564779340416 205374 149111 163298 -342215
832780564797553408 205122 148817 163284 -342220
832780564815766272 204758 148507 163293 -342227
832780564833979264 204427 148224 163230 -342248
832780564852192128 204192 148072 163231 -342270
832780564870405120 203977 147822 163187 -342239
832780564888617984 203838 147636 163224 -342218
832780564906830976 203644 147489 163199 -342259
832780564925043840 203585 147394 163136 -342225
832780564943256832 203463 147281 163132 -342264
832780564961469696 203681 147416 163195 -342262
832780564979682688 203556 147372 163212 -342194
832780564997895552 203652 147357 163246 -342252
832780565016108416 203652 147485 163230 -342210
832780565034321408 203778 147598 163317 -342199
832780565052534272 203935 147722 163306 -342212
832780565070747264 204105 147888 163319 -342205
832780565088960128 204221 148019 163261 -342201
832780565107173120 204452 148154 163276 -342233
832780565125385984 204569 148328 163291 -342213
832780565143598976 204763 148509 163320 -342165
832780565161811840 204903 148659 163293 -342175
832780565180024832 204908 148723 163233 -342177
832780565198237696 205010 148713 163238 -342235
832780565216450688 205085 148847 163216 -342220
832780565234663552 205091 148883 163272 -342237
832780565252876544 205207 148938 163301 -342205
832780565271089408 205207 148897 163241 -342229
832780565289302400 205195 148963 163275 -342203
832780565307515264 205232 148967 163294 -342158
832780565325728256 205163 148910 163275 -342208
832780565343941120 205167 148962 163280 -342208
832780565362153984 205237 148940 163276 -342226
832780565380366976 205319 149058 163280 -342142
832780565398579840 205305 149067 163271 -342125
832780565416792832 205370 149167 163280 -342206
832780565435005842 205546 149262 163267 -342183
832780565453217408 205612 149360 163222 -342253
832780565471428992 205705 149456 163162 -342232
832780565489640704 205920 149713 163233 -342203
832780565507852288 206051 149798 163274 -342200
832780565526063872 206189 149951 163291 -342247
832780565544275456 206467 150138 163333 -342187
832780565562487168 206587 150331 163300 -342163
832780565580698752 206712 150535 163318 -342180
832780565598910336 206827 150576 163256 -342208
832780565617121920 206895 150691 163251 -342197
832780565635333632 206918 150681 163271 -342201
832780565653545216 206809 150598 163260 -342210
832780565671756800 206764 150466 163277 -342197
832780565689968384 206564 150294 163241 -342211
832780565708180096 206353 150167 163327 -342210
832780565726391680 206163 149901 163311 -342171
832780565744603264 205876 149572 163256 -342205
832780565762814848 205635 149369 163275 -342199
832780565781026560 205231 149079 163313 -342174
832780565799238144 204978 148737 163266 -342189
832780565817449728 204686 148505 163234 -342236
832780565835661312 204398 148193 163200 -342202
832780565853873024 204212 147952 163231 -342219
832780565872084608 204004 147778 163240 -342204
832780565890296192 203803 147594 163212 -342216
832780565908507776 203642 147435 163181 -342195
832780565926719488 203606 147353 163254 -342208
832780565944931072 203521 147308 163237 -342227
832780565963142656 203531 147285 163240 -342227
832780565981354240 203527 147320 163265 -342217
832780565999565952 203593 147339 163285 -342186
832780566017777536 203681 147414 163266 -342250
832780566035989120 203756 147544 163238 -342228
832780566054200704 203913 147752 163245 -342199
832780566072412416 204101 147867 163305 -342192
832780566090624000 204273 148037 163285 -342228
832780566108835584 204436 148252 163267 -342140
832780566127047168 204592 148358 163280 -342226
832780566145258880 204767 148487 163311 -342210
832780566163470464 204814 148576 163308 -342203
832780566181682048 204933 148722 163295 -342174
832780566199893736 205032 148834 163262 -342187
832780566218105472 205058 148778 163223 -342210
832780566236317184 205101 148891 163295 -342172
832780566254529024 205108 148884 163236 -342177
832780566272740736 205153 148973 163217 -342225
832780566290952448 205166 148950 163240 -342220
832780566309164288 205145 148967 163223 -342212
832780566327376000 205162 148957 163283 -342276
832780566345587840 205136 148974 163241 -342199
832780566363799552 205179 148943 163230 -342222
832780566382011264 205203 148968 163268 -342245
832780566400223104 205317 149052 163323 -342237
832780566418434816 205376 149099 163292 -342226
832780566436646528 205433 149170 163243 -342227
832780566454858368 205638 149337 163269 -342277
832780566473070080 205774 149499 163256 -342218
832780566491281792 205908 149698 163290 -342208
832780566509493632 206084 149825 163259 -342183
832780566527705344 206229 149998 163245 -342202
832780566545917184 206405 150174 163268 -342179
832780566564128896 206546 150311 163285 -342196
832780566582340608 206687 150481 163335 -342169
832780566600552448 206785 150555 163265 -342167
832780566618764160 206863 150546 163283 -342197
832780566636975872 206911 150624 163319 -342177
832780566655187712 206816 150550 163273 -342214
832780566673399424 206708 150491 163311 -342251
832780566691611136 206514 150269 163219 -342252
832780566709822976 206366 150143 163269 -342219
832780566728034688 206112 149863 163315 -342176
832780566746246528 205829 149537 163257 -342245
832780566764458240 205560 149311 163264 -342215
832780566782669952 205310 149046 163299 -342229
832780566800881792 204967 148695 163271 -342225
832780566819093504 204670 148423 163214 -342201
832780566837305216 204401 148185 163256 -342202
832780566855517056 204179 147949 163271 -342186
832780566873728768 204027 147717 163290 -342164
832780566891940480 203720 147512 163223 -342235
832780566910152320 203733 147489 163275 -342161
832780566928364032 203555 147345 163245 -342219
832780566946575872 203532 147338 163262 -342215
832780566964787584 203541 147359 163273 -342239
832780566982999354 203532 147314 163263 -342238
832780567001210112 203619 147374 163221 -342222
832780567019420928 203766 147576 163306 -342220
832780567037631616 203832 147615 163311 -342203
832780567055842432 203958 147703 163301 -342222
832780567074053248 204120 147909 163258 -342174
832780567092264064 204253 148063 163211 -342210
832780567110474752 204430 148201 163210 -342194
832780567128685568 204568 148322 163271 -342221
832780567146896384 204702 148467 163240 -342243
832780567165107200 204803 148580 163294 -342201
832780567183317888 204949 148668 163292 -342217
832780567201528704 205072 148733 163299 -342264
832780567219739520 205097 148832 163286 -342227
832780567237950208 205132 148858 163280 -342253
832780567256161024 205177 148879 163277 -342261
832780567274371840 205218 148846 163292 -342174
832780567292582656 205218 148896 163266 -342240
832780567310793344 205193 148912 163202 -342219
832780567329004160 205231 148952 163302 -342204
832780567347214976 205233 148912 163258 -342242
832780567365425792 205233 148985 163251 -342182
832780567383636480 205331 149007 163246 -342221
832780567401847296 205327 149090 163248 -342277
832780567420058112 205419 149133 163282 -342211
832780567438268800 205491 149187 163242 -342213
832780567456479616 205642 149386 163288 -342232
832780567474690432 205829 149581 163303 -342229
832780567492901248 205924 149710 163294 -342247
832780567511111936 206126 149884 163271 -342214
832780567529322752 206317 150084 163256 -342202
832780567547533568 206433 150222 163233 -342202
832780567565744256 206629 150354 163290 -342194
832780567583955072 206722 150491 163264 -342235
832780567602165888 206790 150546 163202 -342214
832780567620376704 206901 150608 163258 -342210
832780567638587392 206885 150623 163215 -342234
832780567656798208 206772 150550 163215 -342254
832780567675009024 206640 150397 163226 -342229
