TIMESTAMP PPG0 PPG1 PPG2 AMBIENT
832351508468587904 163001 41061 15106 -187264
832351508486769664 162973 41071 15019 -187309
832351508504951552 162992 41162 15022 -187260
832351508523133312 162993 41082 15026 -187256
832351508541315200 162982 41024 15038 -187246
832351508559496960 162940 41091 15053 -187260
832351508577678848 162977 41105 15088 -187237
832351508595860608 163008 41115 15021 -187219
832351508614042496 162981 41077 15058 -187269
832351508632224256 163006 41055 15087 -187325
832351508650406144 163030 41092 15068 -187358
832351508668587904 163027 41104 15078 -187319
832351508686769664 163008 41149 15137 -187294
832351508704951552 163017 41201 15126 -187274
832351508723133312 162996 41161 15092 -187327
832351508741315200 162993 41084 15078 -187270
832351508759496960 163006 41113 15076 -187310
832351508777678848 162993 41104 15097 -187317
832351508795860608 163024 41148 15104 -187236
832351508814042496 162978 41135 15113 -187265
832351508832224256 163011 41103 15168 -187213
832351508850406144 163040 41115 15088 -187276
832351508868587904 163034 41151 15086 -187302
832351508886769664 163025 41124 15112 -187290
832351508904951552 163027 41076 15119 -187265
832351508923133312 163075 41106 15154 -187263
832351508941315200 163015 41112 15076 -187244
832351508959496960 163018 41113 15071 -187253
832351508977678848 163033 41152 15142 -187225
832351508995860608 163011 41143 15081 -187343
832351509014042496 163032 41116 15079 -187301
832351509032224256 163040 41148 15066 -187293
832351509050406144 163044 41137 15079 -187287
832351509068587904 163038 41122 15121 -187235
832351509086769664 163036 41091 15061 -187286
832351509104951552 163020 41086 15060 -187240
832351509123133312 162991 41099 15051 -187268
832351509141315200 163093 41123 15047 -187223
832351509159496960 163044 41094 15078 -187278
832351509177678848 163061 41123 15056 -187292
832351509195860608 162976 41023 15072 -187273
832351509214042496 163049 41130 15141 -187240
832351509232224256 163053 41146 15105 -187259
832351509250406144 163055 41128 15102 -187258
832351509268587904 163060 41126 15077 -187257
832351509286769664 163034 41083 15057 -187324
832351509304951552 163049 41114 15060 -187285
832351509323133312 163052 41101 15119 -187291
832351509341315200 163013 41143 15102 -187320
832351509359496960 162969 41160 15051 -187283
832351509377678848 162984 41127 15106 -187305
832351509395860600 163001 41154 15124 -187270
832351509414073472 163030 41138 15107 -187291
832351509432286336 163050 41168 15102 -187267
832351509450499328 163030 41174 15122 -187225
832351509468712192 162954 41149 15088 -187250
832351509486925056 163074 41126 15137 -187248
832351509505138048 163052 41173 15067 -187265
832351509523350912 163101 41181 15141 -187270
832351509541563776 163083 41134 15122 -187259
832351509559776640 163026 41064 15089 -187275
832351509577989632 163054 41124 15162 -187243
832351509596202496 162973 41143 15088 -187222
832351509614415360 163054 41155 15095 -187306
832351509632628352 163007 41125 15121 -187277
832351509650841216 163056 41133 15148 -187249
832351509669054080 163066 41166 15139 -187256
832351509687267072 163050 41137 15081 -187259
832351509705479936 163057 41152 15084 -187306
832351509723692800 162977 41092 15103 -187296
832351509741905792 163003 41128 15113 -187310
832351509760118656 163045 41138 15148 -187270
832351509778331520 163020 41120 15151 -187282
832351509796544384 163053 41124 15108 -187270
832351509814757376 163086 41080 15104 -187230
832351509832970240 163025 41089 15068 -187277
832351509851183104 163054 41121 15024 -187290
832351509869396096 163071 41131 15147 -187221
832351509887608960 163076 41115 15063 -187276
832351509905821824 163064 41163 15103 -187253
832351509924034816 163021 41075 15070 -187286
832351509942247680 163029 41087 15136 -187244
832351509960460544 163073 41163 15138 -187173
832351509978673408 163042 41130 15085 -187273
832351509996886400 163044 41108 15051 -187300
832351510015099264 163086 41175 15159 -187255
832351510033312128 163032 41137 15122 -187244
832351510051525120 163097 41189 15154 -187217
832351510069737984 163044 41138 15157 -187269
832351510087950848 163060 41089 15132 -187241
832351510106163840 163054 41152 15118 -187271
832351510124376704 163012 41110 15081 -187319
832351510142589568 163081 41109 15097 -187300
832351510160802560 163123 41155 15158 -187227
832351510179015424 163054 41125 15117 -187271
832351510197228288 163117 41116 15113 -187248
832351510215441152 163015 41094 15115 -187291
832351510233654144 163068 41113 15129 -187300
832351510251867008 163058 41141 15134 -187269
832351510270079872 163091 41086 15080 -187347
832351510288292864 163022 41088 15127 -187325
832351510306505728 163152 41205 15187 -187296
832351510324718660 163079 41128 15074 -187298
832351510342931200 163059 41155 15095 -187342
832351510361143680 163018 41099 15069 -187268
832351510379356160 163039 41122 15103 -187284
832351510397568640 163000 41141 15077 -187358
832351510415781120 162984 41110 15107 -187363
832351510433993600 163028 41084 15072 -187302
832351510452206080 163058 41124 15055 -187287
832351510470418560 163043 41173 15076 -187263
832351510488631040 163095 41148 15117 -187295
832351510506843520 163044 41155 15134 -187306
832351510525056000 163023 41104 15114 -187241
832351510543268480 163011 41094 15138 -187238
832351510561480960 162967 41053 15139 -187270
832351510579693440 163022 41083 15069 -187273
832351510597905920 163075 41147 15147 -187303
832351510616118400 163013 41069 15075 -187298
832351510634330880 163052 41143 15106 -187224
832351510652543360 163022 41090 15111 -187334
832351510670755840 163004 41137 15075 -187293
832351510688968320 162998 41142 15051 -187305
832351510707180800 163044 41159 15154 -187277
832351510725393280 163000 41139 15146 -187275
832351510743605760 16096 -37472 -45785 -187350
832351510761818240 -47958 -71721 -72814 -187385
832351510780030720 -75795 -86585 -84487 -187341
832351510798243200 -87889 -93068 -89514 -187315
832351510816455680 -93207 -95851 -91782 -187300
832351510834668160 -95553 -97091 -92708 -187281
832351510852880640 -96503 -97595 -93131 -187208
832351510871093090 -96949 -97826 -93251 -187319
832351510889305344 -97198 -97897 -93355 -187315
832351510907517568 -97248 -97979 -93461 -187349
832351510925729792 -97284 -98005 -93476 -187333
832351510943942016 -97342 -98028 -93478 -187343
832351510962154112 -97334 -97982 -93448 -187290
832351510980366336 -97285 -98015 -93439 -187277
832351510998578560 -97342 -98024 -93493 -187318
832351511016790784 -97347 -98011 -93403 -187298
832351511035003008 -97383 -98078 -93482 -187343
832351511053215232 -97297 -98047 -93408 -187284
832351511071427328 -97336 -98004 -93416 -187293
832351511089639552 -97365 -98053 -93492 -187336
832351511107851776 -97356 -98019 -93510 -187313
832351511126064000 -97325 -98035 -93483 -187326
832351511144276224 -97376 -98054 -93434 -187261
832351511162488448 -97335 -98039 -93452 -187284
832351511180700544 -97374 -98067 -93474 -187287
832351511198912768 -97338 -98013 -93431 -187293
832351511217124992 -97339 -98004 -93438 -187270
832351511235337216 -97330 -97975 -93460 -187276
832351511253549440 -97340 -97975 -93463 -187281
832351511271761664 -97338 -97999 -93499 -187320
832351511289973760 -97289 -97992 -93427 -187265
832351511308185984 -97329 -98044 -93483 -187332
832351511326398208 -97288 -97996 -93423 -187263
832351511344610432 -97365 -98046 -93495 -187301
832351511362822656 -97391 -97995 -93426 -187322
832351511381034880 -97379 -98072 -93508 -187328
832351511399247104 -97370 -98021 -93468 -187316
832351511417459200 -97324 -98036 -93432 -187267
832351511435671424 -97371 -98007 -93420 -187330
832351511453883648 -97352 -98007 -93450 -187325
832351511472095872 -97332 -98019 -93424 -187347
832351511490308096 -97349 -98025 -93466 -187370
832351511508520320 -97339 -98012 -93429 -187312
832351511526732416 -97304 -97990 -93410 -187270
832351511544944640 -97331 -98014 -93423 -187300
832351511563156864 -97374 -98062 -93473 -187273
832351511581369088 -97347 -98015 -93490 -187327
832351511599581312 -97345 -98050 -93454 -187283
832351511617793536 -97324 -98011 -93387 -187265
832351511636005632 -97330 -98028 -93455 -187315
832351511654217856 -97364 -98044 -93441 -187339
832351511672430080 -97302 -97972 -93348 -187282
832351511690642304 -97282 -97972 -93403 -187266
832351511708854528 -97277 -97973 -93365 -187249
832351511727066752 -97324 -97987 -93398 -187285
832351511745278848 -97328 -97960 -93434 -187304
832351511763491072 -97366 -98048 -93391 -187301
832351511781703296 -97294 -97966 -93462 -187229
832351511799915520 -97279 -97984 -93455 -187282
832351511818127670 -97322 -98039 -93429 -187285
832351511836338560 -97322 -97984 -93472 -187306
832351511854549504 -97353 -98052 -93474 -187354
832351511872760448 -97321 -98032 -93462 -187309
832351511890971392 -97319 -97990 -93445 -187294
832351511909182336 -97303 -97972 -93364 -187285
832351511927393280 -97310 -98015 -93397 -187296
832351511945604224 -97316 -98037 -93406 -187324
832351511963815168 -97286 -97981 -93422 -187286
832351511982026112 -97318 -98024 -93424 -187346
832351512000237056 -97358 -98062 -93400 -187320
832351512018448000 -97318 -98075 -93451 -187344
832351512036658944 -97330 -97981 -93439 -187313
832351512054869760 -97323 -98037 -93452 -187288
832351512073080704 -97297 -97983 -93369 -187292
832351512091291648 -97324 -98042 -93384 -187322
832351512109502592 -97389 -98019 -93438 -187282
832351512127713536 -97359 -97998 -93434 -187278
832351512145924480 -97327 -98003 -93428 -187276
832351512164135424 -97318 -97956 -93440 -187281
832351512182346368 -97288 -97973 -93395 -187269
832351512200557312 -97340 -98012 -93432 -187275
832351512218768256 -97385 -97979 -93458 -187322
832351512236979200 -97359 -97976 -93418 -187301
832351512255190144 -97330 -98030 -93433 -187352
832351512273401088 -97344 -97966 -93463 -187358
832351512291612032 -97345 -97969 -93448 -187301
832351512309822976 -97303 -97933 -93380 -187261
832351512328033920 -97333 -97999 -93373 -187277
832351512346244864 -97317 -98065 -93427 -187346
832351512364455808 -97310 -98016 -93431 -187301
832351512382666752 -97284 -98033 -93413 -187285
832351512400877696 -97372 -98055 -93443 -187333
832351512419088640 -97318 -98037 -93451 -187308
832351512437299584 -97250 -97997 -93422 -187234
832351512455510400 -97300 -97979 -93435 -187306
832351512473721344 -97351 -97998 -93500 -187346
832351512491932288 -97310 -98047 -93468 -187322
832351512510143232 -97354 -98072 -93420 -187309
832351512528354176 -97315 -98013 -93437 -187281
832351512546565120 -97297 -97970 -93438 -187282
832351512564776064 -97350 -98010 -93404 -187363
832351512582987008 -97347 -98031 -93457 -187302
832351512601197952 -97348 -97978 -93457 -187310
832351512619408896 -97344 -97972 -93405 -187276
832351512637619892 -97293 -97975 -93442 -187296
832351512655831424 -97307 -97965 -93450 -187349
832351512674043008 -97300 -97994 -93439 -187329
832351512692254720 -97335 -98045 -93484 -187333
832351512710466304 -97353 -98039 -93520 -187318
832351512728677888 -97363 -98042 -93472 -187346
832351512746889472 -97365 -98037 -93475 -187312
832351512765101184 -54954 -75288 -67417 -187304
832351512783312768 47403 -21374 -30186 -187225
832351512801524352 108517 11511 -6371 -187230
832351512819735936 138228 27593 5426 -187277
832351512837947648 151858 35070 10797 -187226
832351512856159232 157992 38444 13220 -187250
832351512874370816 160718 39897 14240 -187310
832351512892582400 162029 40625 14761 -187273
832351512910794112 162581 40870 14959 -187209
832351512929005696 162754 40980 15061 -187300
832351512947217280 162941 41048 15079 -187310
832351512965428864 163008 41074 15022 -187276
832351512983640576 163005 41071 15069 -187319
832351513001852160 162987 41129 15067 -187315
832351513020063744 162942 41043 15068 -187335
832351513038275328 163015 41106 15096 -187275
832351513056487040 162973 41108 15079 -187309
832351513074698686 163070 41082 15068 -187284
832351513092910464 163055 41116 15068 -187315
832351513111122304 163084 41096 15105 -187252
832351513129334016 163062 41121 15093 -187291
832351513147545856 163027 41139 15111 -187247
832351513165757696 163005 41138 15095 -187254
832351513183969408 163088 41149 15124 -187270
832351513202181248 163075 41115 15098 -187233
832351513220392960 163058 41132 15115 -187309
832351513238604800 163008 41140 15085 -187286
832351513256816640 163030 41137 15092 -187242
832351513275028352 163012 41130 15111 -187252
832351513293240192 162954 41117 15088 -187277
832351513311452032 162976 41103 15112 -187266
832351513329663744 163038 41122 15143 -187219
832351513347875584 163077 41163 15160 -187230
832351513366087296 163075 41078 15158 -187250
832351513384299136 163059 41129 15093 -187250
832351513402510976 163092 41171 15107 -187261
832351513420722688 163042 41099 15125 -187255
832351513438934528 163066 41125 15120 -187322
832351513457146368 163041 41112 15089 -187306
832351513475358080 163012 41141 15073 -187309
832351513493569920 163062 41144 15124 -187311
832351513511781632 163044 41135 15114 -187308
832351513529993472 163092 41101 15090 -187235
832351513548205312 163059 41128 15153 -187275
832351513566417024 163063 41160 15157 -187264
832351513584628864 163098 41156 15136 -187256
832351513602840704 163096 41155 15168 -187204
832351513621052416 163126 41174 15162 -187243
832351513639264256 163131 41198 15211 -187212
832351513657476096 163115 41182 15162 -187230
832351513675687808 163011 41182 15162 -187310
832351513693899648 163078 41169 15135 -187235
832351513712111360 163097 41198 15179 -187288
832351513730323200 163013 41188 15155 -187237
832351513748535040 163032 41174 15125 -187259
832351513766746752 163090 41235 15121 -187212
832351513784958592 163049 41185 15123 -187258
832351513803170432 163029 41103 15156 -187227
832351513821382144 163012 41075 15194 -187273
832351513839593984 163004 41080 15163 -187258
832351513857805696 163075 41132 15181 -187259
832351513876017536 163081 41123 15146 -187225
832351513894229376 163064 41077 15130 -187247
832351513912441088 163017 41121 15139 -187247
832351513930652928 163057 41106 15125 -187260
832351513948864768 163021 41122 15068 -187246
832351513967076480 162989 41159 15090 -187236
832351513985288320 162974 41130 15100 -187263
832351514003500160 162992 41114 15044 -187251
832351514021711904 163036 41099 15134 -187265
832351514039924480 163007 41143 15151 -187205
832351514058137088 163000 41161 15124 -187282
832351514076349696 163029 41047 15146 -187255
832351514094562304 162998 41066 15090 -187346
832351514112774912 163039 41039 15112 -187274
832351514130987520 163033 41063 15104 -187281
832351514149200128 163055 41115 15102 -187256
832351514167412736 163050 41125 15130 -187239
832351514185625344 163090 41087 15094 -187264
832351514203837952 163008 41097 15098 -187319
832351514222050560 163023 41138 15142 -187306
832351514240263296 163064 41105 15130 -187264
832351514258475904 163026 41126 15138 -187253
832351514276688512 163057 41160 15180 -187223
832351514294901120 163063 41141 15153 -187261
832351514313113728 163062 41097 15089 -187276
832351514331326336 163020 41095 15080 -187263
832351514349538944 163074 41108 15140 -187223
832351514367751552 163050 41106 15103 -187333
832351514385964160 163019 41113 15141 -187299
832351514404176768 163043 41121 15092 -187334
832351514422389376 163027 41114 15096 -187305
832351514440601984 163039 41135 15111 -187322
832351514458814592 163049 41179 15115 -187255
832351514477027200 163081 41146 15130 -187239
832351514495239808 163040 41189 15160 -187273
832351514513452416 163072 41141 15147 -187235
832351514531665024 163033 41144 15108 -187301
832351514549877632 163135 41137 15141 -187311
832351514568090240 163114 41201 15161 -187283
832351514586302848 163118 41163 15213 -187227
832351514604515456 163064 41128 15111 -187261
832351514622728192 163089 41147 15128 -187244
832351514640940800 163084 41118 15169 -187233
832351514659153408 163062 41108 15083 -187298
832351514677366016 163027 41083 15051 -187313
832351514695578624 163058 41084 15109 -187243
832351514713791232 163032 41069 15084 -187229
832351514732003840 163013 41125 15081 -187246
832351514750216448 163069 41122 15069 -187275
832351514768429056 163056 41155 15135 -187233
832351514786641664 162969 41079 15059 -187265
832351514804854272 163001 41067 15095 -187319
832351514823066880 162954 41015 15043 -187292
832351514841279488 162981 41050 15047 -187263
832351514859492096 162884 41020 15085 -187315
832351514877704704 162921 41030 15124 -187249
832351514895917312 162937 41041 15090 -187258
832351514914129920 162975 41070 15021 -187306
832351514932342528 162967 41064 15106 -187260
832351514950555136 162985 41010 15047 -187311
832351514968767836 162973 41114 15125 -187251
832351514986979840 163012 41124 15096 -187252
832351515005191808 163038 41077 15087 -187267
832351515023403648 163009 41039 15088 -187283
832351515041615616 163007 41036 15102 -187257
832351515059827456 163001 41067 15142 -187223
832351515078039424 162972 41089 15108 -187229
832351515096251264 163012 41064 15106 -187265
832351515114463232 163010 41072 15097 -187264
832351515132675072 163033 41108 15107 -187270
832351515150887040 162998 41025 15066 -187300
832351515169098880 163006 41069 15084 -187285
832351515187310848 163030 41108 15094 -187244
832351515205522816 162991 41094 15064 -187207
832351515223734656 163052 41118 15119 -187207
832351515241946624 163047 41107 15101 -187265
832351515260158464 163043 41099 15100 -187260
832351515278370432 163056 41072 15146 -187239
832351515296582272 163026 41077 15107 -187252
832351515314794240 163007 41055 15083 -187293
832351515333006080 163019 41076 15073 -187257
832351515351218048 163041 41117 15135 -187295
832351515369429888 163035 41123 15103 -187306
832351515387641856 163062 41151 15114 -187256
832351515405853824 162996 41088 15072 -187238
832351515424065664 162931 41072 15035 -187248
832351515442277632 162958 41047 15015 -187293
832351515460489472 162938 41078 15101 -187272
832351515478701440 162954 41088 15112 -187282
832351515496913280 163040 41091 15107 -187273
832351515515125248 162973 41088 15123 -187229
832351515533337088 162946 41033 15077 -187253
832351515551549056 162920 41056 15058 -187304
832351515569761024 162937 41064 15113 -187252
832351515587972864 162915 41075 15095 -187255
832351515606184832 162973 41090 15096 -187242
832351515624396672 162987 41086 15122 -187261
832351515642608640 163000 41121 15093 -187284
832351515660820480 162931 41108 15085 -187253
832351515679032448 162964 41134 15046 -187259
832351515697244288 162994 41109 15087 -187264
832351515715456256 163017 41116 15115 -187258
832351515733668096 162984 41066 15096 -187265
832351515751880064 162937 41081 15073 -187324
832351515770092032 162984 41116 15080 -187282
832351515788303872 162969 41081 15060 -187243
832351515806515840 162925 41044 15121 -187218
832351515824727680 162921 40964 15051 -187217
832351515842939648 162897 41005 15066 -187239
832351515861151488 162839 41066 15057 -187238
832351515879363456 162823 41035 15011 -187298
832351515897575296 162827 40989 15057 -187257
832351515915787158 162841 41009 15023 -187265
832351515933999744 162814 40936 15059 -187318
832351515952212352 162837 41037 15058 -187278
832351515970424832 162871 41027 15074 -187256
832351515988637440 162834 40961 15073 -187283
832351516006849920 162916 41020 15098 -187248
832351516025062528 162885 40981 15063 -187303
832351516043275136 162875 41004 14959 -187342
832351516061487616 162913 41010 15023 -187295
832351516079700224 162851 40955 14999 -187347
832351516097912704 162908 40977 15023 -187381
832351516116125312 162922 40979 15036 -187302
832351516134337792 162901 41015 15052 -187263
832351516152550400 162898 41012 15050 -187263
832351516170763008 162893 40977 15063 -187278
832351516188975488 162833 41004 15042 -187240
832351516207188096 162845 40993 15028 -187260
832351516225400576 162830 40964 15036 -187312
832351516243613184 162866 41055 15073 -187243
832351516261825792 162869 41011 15056 -187227
832351516280038272 162854 41050 15051 -187210
832351516298250880 162865 40994 15032 -187229
832351516316463360 162920 41065 15101 -187242
832351516334675968 162906 41023 15036 -187256
832351516352888576 162901 41057 15050 -187242
832351516371101056 162853 40976 15056 -187244
832351516389313664 162832 40991 15050 -187244
832351516407526144 162836 40997 15032 -187240
832351516425738752 162868 41006 15047 -187232
832351516443951360 162850 41047 15087 -187234
832351516462163840 162817 40990 15006 -187287
832351516480376448 162817 40958 14995 -187339
832351516498588928 162862 40985 15090 -187248
832351516516801536 162814 40975 15016 -187286
832351516535014016 162861 40938 15074 -187266
832351516553226624 162788 40943 15012 -187335
832351516571439232 162868 41004 15050 -187260
832351516589651712 162859 41004 15049 -187267
832351516607864320 162880 40976 14992 -187239
832351516626076800 162886 41060 15094 -187278
832351516644289408 162904 41089 15076 -187238
832351516662502016 162832 40981 14976 -187292
832351516680714496 162946 41020 15008 -187260
832351516698927104 162837 40947 15004 -187265
832351516717139584 162805 40916 15004 -187276
832351516735352192 162838 41030 15057 -187282
832351516753564800 162866 40971 15035 -187259
832351516771777280 162876 41046 15071 -187230
832351516789989888 162883 40978 15020 -187238
832351516808202368 162789 40958 15039 -187278
832351516826414976 162751 40941 15022 -187269
832351516844627584 162671 40952 14961 -187240
832351516862840048 162632 40906 14941 -187251
832351516881053184 162669 40922 14941 -187266
832351516899266304 162593 40884 14893 -187288
832351516917479424 162608 40814 14917 -187243
832351516935692672 162635 40849 14934 -187246
832351516953905792 162601 40837 14980 -187226
832351516972118912 162609 40869 14933 -187271
832351516990332032 162654 40792 14917 -187244
832351517008545152 162652 40815 14971 -187291
832351517026758272 162630 40815 14964 -187289
832351517044971520 162598 40831 14942 -187315
832351517063184640 162673 40821 14947 -187303
832351517081397760 162639 40827 14973 -187290
832351517099610880 162657 40785 14934 -187251
832351517117824000 162627 40834 14929 -187218
832351517136037120 162667 40889 14982 -187179
832351517154250368 162671 40882 14993 -187212
832351517172463488 162651 40898 14989 -187213
832351517190676608 162669 40839 14907 -187246
832351517208889728 162595 40884 14920 -187278
832351517227102848 162603 40865 14932 -187300
832351517245315968 162629 40858 14876 -187311
832351517263529216 162657 40828 14934 -187281
832351517281742336 162643 40926 14966 -187218
832351517299955456 162667 40923 15004 -187235
832351517318168576 162622 40927 15012 -187285
832351517336381696 162644 40837 14943 -187269
832351517354594944 162642 40900 14938 -187260
832351517372808064 162613 40862 14976 -187268
832351517391021184 162575 40898 15015 -187261
832351517409234304 162591 40860 14992 -187259
832351517427447424 162598 40887 14920 -187281
832351517445660544 162580 40836 14998 -187263
832351517463873792 162596 40837 14985 -187294
832351517482086912 162646 40924 15026 -187248
832351517500300032 162664 40901 14971 -187254
832351517518513152 162680 40888 14956 -187309
832351517536726272 162680 40887 14984 -187299
832351517554939392 162667 40830 14941 -187302
832351517573152640 162641 40835 14952 -187246
832351517591365760 162634 40868 14942 -187270
832351517609578880 162653 40851 14940 -187316
832351517627792000 162591 40821 14941 -187292
832351517646005120 162590 40818 14959 -187270
832351517664218240 162584 40886 14970 -187309
832351517682431488 162600 40878 14964 -187292
832351517700644608 162644 40876 14992 -187263
832351517718857728 162590 40877 14998 -187293
832351517737070848 162629 40878 14971 -187236
832351517755283968 162608 40841 14903 -187323
832351517773497216 162594 40856 14917 -187286
832351517791710306 162566 40810 14913 -187322
832351517809922816 162535 40800 14924 -187284
832351517828135296 162406 40743 14869 -187286
832351517846347776 162371 40725 14892 -187227
832351517864560256 162265 40653 14832 -187265
832351517882772736 162355 40661 14882 -187197
832351517900985344 162279 40632 14817 -187210
832351517919197824 162258 40634 14871 -187210
832351517937410304 162264 40595 14813 -187289
832351517955622784 162232 40643 14800 -187261
832351517973835264 162259 40633 14822 -187248
832351517992047744 162181 40712 14834 -187265
832351518010260224 162150 40649 14795 -187308
832351518028472704 162149 40668 14782 -187346
832351518046685184 162214 40661 14789 -187294
832351518064897664 162243 40668 14829 -187272
832351518083110272 162205 40647 14811 -187286
832351518101322752 162236 40669 14842 -187276
832351518119535232 162260 40631 14783 -187340
832351518137747712 162234 40638 14799 -187283
832351518155960192 162292 40673 14865 -187254
832351518174172672 162269 40655 14845 -187254
832351518192385152 162300 40716 14853 -187234
832351518210597632 162247 40634 14795 -187252
832351518228810112 162219 40660 14881 -187256
832351518247022592 162226 40668 14861 -187294
832351518265235200 162239 40649 14852 -187249
832351518283447680 162294 40682 14816 -187277
832351518301660160 162225 40663 14866 -187246
832351518319872640 162243 40683 14883 -187292
832351518338085120 162259 40613 14799 -187290
832351518356297600 162243 40625 14797 -187260
832351518374510080 162255 40623 14776 -187247
832351518392722560 162234 40596 14782 -187351
832351518410935040 162278 40628 14774 -187285
832351518429147648 162308 40690 14827 -187229
832351518447360128 162267 40654 14801 -187252
832351518465572608 162226 40622 14763 -187238
832351518483785088 162245 40618 14800 -187281
832351518501997568 162252 40617 14822 -187264
832351518520210048 162293 40623 14810 -187270
832351518538422528 162303 40617 14817 -187240
832351518556635008 162318 40614 14824 -187308
832351518574847488 162368 40674 14820 -187257
832351518593059968 162277 40630 14794 -187340
832351518611272576 162306 40651 14850 -187321
832351518629485056 162235 40697 14785 -187282
832351518647697486 162271 40634 14753 -187316
832351518665909376 162262 40637 14842 -187264
832351518684121216 162272 40670 14827 -187268
832351518702333056 162205 40640 14781 -187290
832351518720544896 162238 40716 14778 -187266
832351518738756736 162214 40617 14770 -187269
832351518756968576 162222 40620 14823 -187303
832351518775180416 162219 40698 14757 -187282
832351518793392256 162283 40631 14785 -187285
832351518811604096 162272 40673 14804 -187257
832351518829815936 162102 40558 14716 -187301
832351518848027776 161942 40419 14619 -187309
832351518866239616 161828 40353 14555 -187291
832351518884451456 161749 40333 14551 -187247
832351518902663296 161628 40247 14516 -187259
832351518920875136 161583 40231 14486 -187275
832351518939086976 161532 40246 14506 -187264
832351518957298816 161603 40242 14507 -187287
832351518975510656 161568 40236 14507 -187321
832351518993722624 161604 40333 14607 -187252
832351519011934464 161661 40327 14572 -187242
832351519030146304 161609 40257 14582 -187266
832351519048358144 161608 40235 14557 -187278
832351519066569984 161579 40252 14526 -187287
832351519084781824 161576 40284 14537 -187239
832351519102993664 161545 40238 14504 -187281
832351519121205504 161619 40241 14546 -187293
832351519139417344 161501 40255 14488 -187225
832351519157629184 161570 40224 14507 -187299
832351519175841024 161544 40177 14521 -187281
832351519194052864 161548 40213 14489 -187295
832351519212264704 161578 40206 14488 -187275
832351519230476544 161531 40238 14463 -187308
832351519248688384 161609 40246 14537 -187232
832351519266900224 161567 40216 14511 -187273
832351519285112064 161527 40191 14481 -187312
832351519303323904 161620 40270 14581 -187291
832351519321535744 161587 40212 14497 -187270
832351519339747584 161559 40240 14503 -187291
832351519357959424 161591 40196 14533 -187301
832351519376171264 161521 40270 14538 -187290
832351519394383104 161543 40233 14484 -187309
832351519412594944 161475 40254 14457 -187316
832351519430806784 161532 40211 14445 -187339
832351519449018624 161605 40278 14509 -187282
832351519467230464 161505 40258 14500 -187292
832351519485442304 161559 40268 14480 -187286
832351519503654140 161589 40268 14444 -187209
832351519521865856 161549 40213 14476 -187274
832351519540077568 161552 40216 14508 -187270
832351519558289280 161518 40174 14496 -187234
832351519576500992 161503 40154 14459 -187305
832351519594712704 161561 40184 14495 -187275
832351519612924416 161545 40153 14488 -187320
832351519631136256 161581 40180 14532 -187288
832351519649347968 161588 40142 14495 -187236
832351519667559680 161562 40225 14475 -187311
832351519685771392 161564 40236 14524 -187253
832351519703983104 161492 40156 14537 -187276
832351519722194816 161547 40219 14538 -187229
832351519740406528 161605 40259 14514 -187234
832351519758618240 161554 40224 14441 -187302
832351519776829952 161556 40238 14496 -187327
832351519795041664 161528 40230 14522 -187260
832351519813253376 161514 40238 14484 -187273
832351519831465088 161246 40117 14405 -187274
832351519849676928 160960 39894 14254 -187338
832351519867888640 160709 39711 14147 -187310
832351519886100352 160545 39625 14053 -187364
832351519904312064 160380 39513 13967 -187265
832351519922523776 160298 39487 13984 -187312
832351519940735488 160218 39512 13936 -187312
832351519958947200 160208 39376 13920 -187263
832351519977158912 160199 39417 13848 -187316
832351519995370624 160256 39405 13909 -187274
832351520013582336 160207 39421 13901 -187270
832351520031794048 160242 39437 13903 -187258
832351520050005760 160158 39421 13902 -187263
832351520068217600 160150 39455 13946 -187281
832351520086429312 160210 39418 13943 -187320
832351520104641024 160124 39426 13919 -187309
832351520122852736 160143 39412 13899 -187303
832351520141064448 160169 39389 13908 -187282
832351520159276160 160135 39407 13858 -187305
832351520177487872 160131 39415 13863 -187237
832351520195699584 160095 39417 13906 -187253
832351520213911296 160091 39485 13885 -187234
832351520232123008 160108 39414 13906 -187266
832351520250334720 160175 39467 13883 -187294
832351520268546432 160152 39468 13975 -187269
832351520286758224 160177 39466 13897 -187241
832351520304969472 160156 39434 13955 -187286
832351520323180672 160175 39458 13919 -187304
832351520341392000 160149 39408 13879 -187289
832351520359603200 160144 39429 13896 -187269
832351520377814528 160191 39440 13891 -187293
832351520396025728 160217 39436 13934 -187300
832351520414236928 160175 39340 13879 -187243
832351520432448256 160211 39469 13979 -187207
832351520450659456 160186 39340 13879 -187292
832351520468870784 160192 39473 13879 -187274
832351520487081984 160114 39424 13869 -187290
832351520505293312 160124 39450 13955 -187266
832351520523504512 160139 39395 13863 -187339
832351520541715712 160210 39410 13880 -187230
832351520559927040 160213 39486 13962 -187200
832351520578138240 160138 39386 13883 -187246
832351520596349568 160098 39367 13879 -187247
832351520614560768 160177 39439 13942 -187235
832351520632771968 160197 39462 13925 -187269
832351520650983296 160179 39437 13873 -187299
832351520669194496 160195 39539 13924 -187223
832351520687405824 160201 39467 13926 -187273
832351520705617024 160201 39433 13916 -187321
832351520723828352 160205 39407 13868 -187308
832351520742039552 160226 39459 13886 -187258
832351520760250752 160199 39446 13875 -187255
832351520778462080 160182 39429 13885 -187315
832351520796673280 160159 39417 13889 -187283
832351520814884608 160165 39404 13880 -187283
832351520833095808 160182 39493 13838 -187259
832351520851307008 159729 39198 13706 -187253
832351520869518336 159130 38787 13479 -187287
832351520887729536 158574 38456 13207 -187295
832351520905940864 158094 38258 13011 -187261
832351520924152064 157715 38006 12845 -187276
832351520942363392 157483 37902 12775 -187285
832351520960574592 157299 37744 12657 -187265
832351520978785792 157179 37689 12581 -187282
832351520996997120 157092 37616 12548 -187284
832351521015208320 157106 37598 12583 -187285
832351521033419648 157065 37573 12474 -187326
832351521051630858 157024 37583 12491 -187278
832351521069842432 157030 37589 12485 -187288
832351521088054016 156987 37610 12456 -187256
832351521106265728 156971 37578 12414 -187336
832351521124477312 157028 37530 12464 -187294
832351521142688896 157071 37597 12521 -187274
832351521160900480 157030 37617 12501 -187275
832351521179112192 157003 37552 12449 -187294
832351521197323776 157023 37599 12480 -187282
832351521215535360 157048 37567 12489 -187303
832351521233746944 157046 37602 12484 -187265
832351521251958656 156980 37593 12449 -187308
832351521270170240 157046 37600 12482 -187300
832351521288381824 157010 37592 12513 -187315
832351521306593408 156986 37596 12474 -187246
832351521324805120 157009 37540 12443 -187322
832351521343016704 157004 37606 12458 -187310
832351521361228288 156976 37615 12459 -187299
832351521379439872 157036 37622 12500 -187300
832351521397651584 157009 37619 12484 -187306
832351521415863168 157065 37676 12534 -187334
832351521434074752 157066 37656 12513 -187257
832351521452286336 157058 37639 12532 -187240
832351521470498048 157021 37585 12501 -187229
832351521488709632 157026 37564 12451 -187256
832351521506921216 157027 37611 12482 -187299
832351521525132800 157000 37578 12474 -187357
832351521543344512 156964 37554 12464 -187310
832351521561556096 156990 37534 12524 -187267
832351521579767680 156971 37566 12461 -187316
832351521597979264 157053 37628 12509 -187253
832351521616190976 157014 37567 12503 -187249
832351521634402560 157033 37626 12507 -187288
832351521652614144 156983 37640 12418 -187270
832351521670825728 157007 37593 12475 -187255
832351521689037440 157022 37564 12446 -187313
832351521707249024 157073 37636 12515 -187281
832351521725460608 156998 37632 12549 -187219
832351521743672192 157044 37630 12565 -187227
832351521761883904 156977 37607 12521 -187276
832351521780095488 156948 37601 12512 -187283
832351521798307072 157022 37586 12540 -187264
832351521816518656 156988 37584 12504 -187275
832351521834730368 157000 37605 12500 -187237
832351521852941952 156419 37279 12202 -187257
832351521871153536 155017 36507 11573 -187204
832351521889365120 153506 35602 10882 -187223
832351521907576830 152210 34918 10280 -187293
832351521925789952 151232 34324 9829 -187267
832351521944003072 150402 33835 9462 -187318
832351521962216192 149796 33532 9186 -187296
832351521980429312 149375 33212 8957 -187269
832351521998642432 149105 33081 8846 -187300
832351522016855424 148874 32943 8784 -187269
832351522035068544 148680 32850 8681 -187329
832351522053281664 148602 32867 8654 -187278
832351522071494784 148617 32829 8661 -187264
832351522089707904 148486 32787 8706 -187320
832351522107921024 148524 32780 8622 -187347
832351522126134144 148438 32785 8610 -187301
832351522144347264 148449 32763 8626 -187235
832351522162560384 148423 32772 8545 -187284
832351522180773376 148446 32719 8549 -187271
832351522198986496 148418 32716 8548 -187270
832351522217199616 148430 32691 8589 -187304
832351522235412736 148381 32760 8578 -187281
832351522253625856 148348 32680 8544 -187268
832351522271838976 148371 32773 8548 -187265
832351522290052096 148384 32744 8579 -187292
832351522308265216 148403 32747 8537 -187286
832351522326478208 148449 32732 8606 -187281
832351522344691328 148399 32663 8550 -187288
832351522362904448 148294 32614 8499 -187329
832351522381117568 148363 32714 8520 -187256
832351522399330688 148386 32668 8593 -187213
832351522417543808 148367 32717 8645 -187255
832351522435756928 148361 32734 8629 -187225
832351522453970048 148370 32683 8619 -187291
832351522472183168 148352 32742 8568 -187260
832351522490396160 148436 32743 8596 -187227
832351522508609280 148467 32764 8608 -187205
832351522526822400 148396 32654 8535 -187322
832351522545035520 148351 32693 8558 -187284
832351522563248640 148381 32678 8531 -187291
832351522581461760 148396 32661 8533 -187250
832351522599674880 148369 32636 8551 -187268
832351522617888000 148328 32663 8518 -187299
832351522636101120 148402 32727 8540 -187299
832351522654314152 148402 32663 8550 -187310
832351522672526592 148386 32669 8510 -187293
832351522690739072 148388 32719 8521 -187252
832351522708951680 148441 32692 8543 -187266
832351522727164160 148402 32726 8609 -187229
832351522745376768 148333 32701 8582 -187292
832351522763589248 148383 32699 8567 -187273
832351522781801856 148400 32701 8545 -187270
832351522800014336 148460 32729 8578 -187273
832351522818226944 148387 32718 8566 -187223
832351522836439424 148407 32709 8586 -187258
832351522854652032 147291 32099 8149 -187248
832351522872864512 143941 30227 6564 -187284
832351522891077120 140241 28155 4975 -187236
832351522909289600 136917 26345 3435 -187255
832351522927502208 134143 24833 2242 -187347
832351522945714688 132063 23662 1317 -187325
832351522963927296 130513 22776 659 -187300
832351522982139776 129381 22116 163 -187234
832351523000352384 128546 21689 -178 -187235
832351523018564864 127983 21368 -391 -187197
832351523036777472 127622 21153 -592 -187258
832351523054989952 127248 20919 -793 -187323
832351523073202432 127112 20892 -798 -187256
832351523091415040 126966 20786 -839 -187273
832351523109627520 126881 20724 -874 -187246
832351523127840128 126856 20774 -896 -187323
832351523146052608 126806 20694 -960 -187286
832351523164265216 126762 20686 -977 -187303
832351523182477696 126765 20670 -971 -187298
832351523200690304 126689 20643 -984 -187310
832351523218902784 126651 20626 -1024 -187273
832351523237115392 126583 20587 -1029 -187266
832351523255328008 126637 20507 -1087 -187217
832351523273540864 126674 20568 -1017 -187204
832351523291753728 126575 20583 -997 -187290
832351523309966592 126710 20599 -961 -187284
832351523328179456 126646 20622 -978 -187281
832351523346392320 126606 20630 -1003 -187265
832351523364605184 126678 20677 -942 -187215
832351523382818048 126604 20625 -898 -187274
832351523401030912 126589 20605 -987 -187269
832351523419243776 126571 20536 -1020 -187300
832351523437456640 126621 20588 -1023 -187269
832351523455669504 126544 20521 -1052 -187268
832351523473882368 126546 20594 -1045 -187260
832351523492095232 126623 20539 -1053 -187313
832351523510308096 126592 20646 -1002 -187283
832351523528520960 126567 20603 -1020 -187202
832351523546733824 126591 20653 -987 -187241
832351523564946688 126607 20624 -953 -187242
832351523583159552 126616 20617 -967 -187286
832351523601372416 126577 20589 -996 -187253
832351523619585280 126592 20554 -981 -187199
832351523637798144 126556 20511 -1056 -187240
832351523656011008 126562 20475 -1083 -187298
832351523674223872 126622 20571 -1032 -187277
832351523692436736 126541 20614 -1050 -187248
832351523710649600 126550 20633 -1022 -187204
832351523728862336 126556 20656 -994 -187251
832351523747075200 126621 20652 -976 -187259
832351523765288064 126618 20643 -986 -187275
832351523783500928 126595 20596 -960 -187269
832351523801713792 126543 20507 -986 -187243
832351523819926656 126521 20488 -1055 -187284
832351523838139520 126512 20510 -980 -187311
832351523856352384 126102 20377 -1168 -187296
832351523874565248 119569 16790 -3887 -187241
832351523892778112 111954 12665 -6899 -187224
832351523910990976 105523 9189 -9452 -187214
832351523929203840 100683 6604 -11325 -187256
832351523947416740 97414 4799 -12584 -187248
832351523965629824 95219 3683 -13381 -187260
832351523983842944 93831 3000 -13886 -187248
832351524002056064 92905 2458 -14267 -187281
832351524020269312 92299 2127 -14510 -187254
832351524038482432 91906 1915 -14651 -187254
832351524056695552 91599 1720 -14747 -187291
832351524074908672 91444 1663 -14821 -187257
832351524093121792 91389 1632 -14800 -187322
832351524111334912 91376 1555 -14825 -187293
832351524129548160 91336 1595 -14836 -187287
832351524147761280 91257 1592 -14830 -187283
832351524165974400 91263 1653 -14833 -187233
832351524184187520 91287 1577 -14879 -187265
832351524202400640 91277 1587 -14840 -187274
832351524220613760 91220 1518 -14891 -187289
832351524238827008 91190 1485 -14905 -187300
832351524257040128 91106 1440 -14952 -187321
832351524275253248 91145 1488 -14888 -187316
832351524293466368 91165 1549 -14847 -187298
832351524311679488 91127 1524 -14903 -187310
832351524329892608 91140 1545 -14870 -187294
832351524348105856 91170 1523 -14918 -187283
832351524366318976 91310 1606 -14872 -187191
832351524384532096 91217 1519 -14918 -187325
832351524402745216 91201 1505 -14857 -187336
832351524420958336 91141 1459 -14936 -187311
832351524439171584 91049 1480 -14975 -187259
832351524457384704 91008 1395 -15049 -187281
832351524475597824 91066 1439 -14984 -187238
832351524493810944 91083 1470 -14952 -187289
832351524512024064 91066 1502 -14992 -187296
832351524530237184 91134 1520 -14970 -187332
832351524548450432 91190 1579 -14920 -187285
832351524566663552 91166 1580 -14937 -187321
832351524584876672 91204 1587 -14958 -187270
832351524603089792 91187 1527 -14951 -187241
832351524621302912 91147 1566 -14913 -187246
832351524639516032 91116 1499 -14927 -187272
832351524657729280 91008 1400 -15009 -187299
832351524675942400 91049 1498 -14985 -187288
832351524694155520 91055 1453 -14939 -187295
832351524712368640 91145 1506 -14907 -187273
832351524730581760 91101 1509 -14929 -187251
832351524748795004 91100 1562 -14864 -187288
832351524767008128 91134 1511 -14894 -187222
832351524785221248 91122 1547 -14903 -187270
832351524803434368 91102 1541 -14868 -187267
832351524821647616 91087 1454 -14949 -187308
832351524839860736 91031 1456 -14953 -187300
832351524858073856 90161 1113 -15224 -187274
832351524876286976 79850 -4291 -18802 -187301
832351524894500096 69650 -9689 -22147 -187249
832351524912713216 62179 -13560 -24552 -187353
832351524930926464 57422 -16036 -26044 -187288
832351524949139584 54630 -17534 -26897 -187311
832351524967352704 53011 -18333 -27400 -187321
832351524985565824 52143 -18759 -27629 -187325
832351525003778944 51690 -18969 -27770 -187277
832351525021992064 51417 -19136 -27869 -187289
832351525040205312 51246 -19261 -27938 -187339
832351525058418432 51005 -19373 -27966 -187328
832351525076631552 50932 -19423 -27982 -187308
832351525094844672 50774 -19518 -27999 -187340
832351525113057792 50719 -19560 -28055 -187332
832351525131271040 50858 -19518 -28015 -187312
832351525149484160 50864 -19469 -28016 -187321
832351525167697280 50957 -19372 -27973 -187286
832351525185910400 50919 -19435 -28033 -187336
832351525204123520 50982 -19324 -27991 -187304
832351525222336640 50897 -19430 -28005 -187354
832351525240549888 50861 -19397 -28049 -187335
832351525258763008 50809 -19458 -27987 -187275
832351525276976128 50750 -19523 -28062 -187384
832351525295189248 50779 -19509 -28065 -187316
832351525313402422 50684 -19483 -28064 -187294
832351525331615488 50781 -19515 -28062 -187255
832351525349828608 50839 -19461 -28065 -187330
832351525368041728 50866 -19483 -28080 -187310
832351525386254976 50837 -19407 -28073 -187305
832351525404468096 50929 -19375 -27973 -187261
832351525422681216 50857 -19434 -28023 -187289
832351525440894336 50815 -19500 -28078 -187284
832351525459107456 50762 -19461 -27964 -187180
832351525477320576 50682 -19516 -28113 -187301
832351525495533824 50717 -19579 -28097 -187312
832351525513746944 50734 -19509 -28085 -187305
832351525531960064 50752 -19372 -28023 -187214
832351525550173184 50804 -19395 -28048 -187196
832351525568386304 50857 -19421 -28080 -187290
832351525586599424 50841 -19430 -28053 -187267
832351525604812672 50832 -19426 -28009 -187304
832351525623025792 50852 -19409 -28043 -187266
832351525641238912 50797 -19479 -28068 -187272
832351525659452032 50732 -19495 -28044 -187261
832351525677665152 50580 -19610 -28085 -187306
832351525695878400 50585 -19562 -28102 -187275
832351525714091520 50632 -19481 -28029 -187273
832351525732304640 50692 -19433 -27952 -187291
832351525750517760 50757 -19407 -28014 -187229
832351525768730880 50792 -19426 -28068 -187337
832351525786944000 50935 -19390 -27983 -187299
832351525805157248 50867 -19387 -28026 -187317
832351525823370368 50894 -19407 -28024 -187249
832351525841583488 50751 -19455 -28009 -187264
832351525859796608 51484 -19239 -27966 -187285
832351525878009728 39644 -25108 -31051 -187276
832351525896222848 28824 -30609 -33812 -187308
832351525914436096 21732 -34214 -35666 -187352
832351525932649216 17839 -36214 -36642 -187301
832351525950862408 15732 -37275 -37173 -187298
832351525969075584 14690 -37813 -37393 -187311
832351525987288704 14206 -38037 -37525 -187294
832351526005501824 13970 -38101 -37492 -187269
832351526023715072 13832 -38199 -37598 -187263
832351526041928192 13759 -38245 -37664 -187287
832351526060141312 13608 -38261 -37608 -187312
832351526078354432 13536 -38414 -37672 -187305
832351526096567552 13473 -38369 -37702 -187205
832351526114780672 13390 -38484 -37765 -187196
832351526132993920 13406 -38399 -37741 -187250
832351526151207040 13426 -38384 -37703 -187247
832351526169420160 13516 -38327 -37656 -187239
832351526187633280 13455 -38332 -37692 -187327
832351526205846400 13556 -38345 -37730 -187337
832351526224059520 13641 -38289 -37623 -187248
832351526242272768 13600 -38312 -37626 -187272
832351526260485888 13568 -38333 -37661 -187265
832351526278699008 13494 -38377 -37692 -187265
832351526296912128 13419 -38401 -37754 -187248
832351526315125248 13312 -38433 -37719 -187254
832351526333338368 13287 -38476 -37730 -187232
832351526351551616 13344 -38422 -37685 -187263
832351526369764736 13442 -38437 -37685 -187300
832351526387977856 13480 -38335 -37656 -187219
832351526406190976 13492 -38361 -37684 -187275
832351526424404096 13607 -38320 -37719 -187290
832351526442617344 13556 -38343 -37709 -187283
832351526460830464 13514 -38315 -37717 -187301
832351526479043584 13518 -38345 -37722 -187291
832351526497256704 13407 -38330 -37643 -187264
832351526515469824 13325 -38491 -37729 -187309
832351526533682944 13352 -38449 -37672 -187284
832351526551896192 13431 -38423 -37701 -187222
832351526570109312 13438 -38388 -37750 -187301
832351526588322432 13471 -38370 -37753 -187278
832351526606535552 13497 -38383 -37746 -187289
832351526624748672 13534 -38347 -37707 -187333
832351526642961792 13518 -38369 -37729 -187268
832351526661175040 13489 -38321 -37694 -187244
832351526679388160 13367 -38454 -37810 -187273
832351526697601280 13232 -38457 -37785 -187277
832351526715814400 13243 -38498 -37774 -187235
832351526734027530 13334 -38433 -37748 -187268
832351526752240640 13316 -38450 -37696 -187259
832351526770453760 13366 -38402 -37732 -187322
832351526788666880 13397 -38368 -37703 -187259
832351526806880128 13531 -38363 -37699 -187274
832351526825093248 13496 -38337 -37700 -187258
832351526843306368 13497 -38356 -37760 -187305
832351526861519488 13623 -38310 -37678 -187320
832351526879732608 3239 -43532 -39869 -187341
832351526897945728 -6183 -48226 -41849 -187340
832351526916158976 -11867 -51130 -43052 -187291
832351526934372096 -14947 -52629 -43701 -187256
832351526952585216 -16592 -53439 -44001 -187276
832351526970798336 -17193 -53806 -44155 -187315
832351526989011456 -17421 -53960 -44231 -187288
832351527007224576 -17523 -54015 -44250 -187288
832351527025437824 -17584 -54015 -44258 -187328
832351527043650944 -17575 -53959 -44265 -187278
832351527061864064 -17496 -53948 -44263 -187284
832351527080077184 -17492 -53922 -44219 -187267
832351527098290304 -17570 -53951 -44232 -187307
832351527116503424 -17642 -54053 -44275 -187250
832351527134716672 -17830 -54128 -44276 -187263
832351527152929792 -17875 -54165 -44320 -187293
832351527171142912 -17813 -54144 -44307 -187267
832351527189356032 -17713 -54069 -44292 -187307
832351527207569152 -17660 -54076 -44270 -187264
832351527225782400 -17638 -54049 -44209 -187258
832351527243995520 -17654 -54063 -44297 -187308
832351527262208640 -17528 -53989 -44293 -187288
832351527280421760 -17595 -54008 -44275 -187298
832351527298634880 -17667 -54011 -44314 -187282
832351527316848082 -17742 -54116 -44252 -187362
832351527335060480 -17904 -54126 -44343 -187308
832351527353272832 -17799 -54085 -44301 -187295
832351527371485056 -17788 -54097 -44286 -187318
832351527389697408 -17715 -54117 -44263 -187310
832351527407909632 -17727 -54066 -44286 -187291
832351527426121984 -17669 -54053 -44281 -187323
832351527444334208 -17700 -54022 -44293 -187287
832351527462546560 -17594 -53992 -44232 -187295
832351527480758784 -17663 -54020 -44220 -187284
832351527498971136 -17692 -53996 -44217 -187274
832351527517183488 -17797 -54065 -44208 -187255
832351527535395712 -17922 -54105 -44241 -187261
832351527553608064 -17872 -54086 -44274 -187229
832351527571820288 -17848 -54095 -44264 -187254
832351527590032640 -17762 -54040 -44230 -187269
832351527608244864 -17754 -54103 -44259 -187328
832351527626457216 -17701 -54077 -44286 -187306
832351527644669440 -17654 -54025 -44268 -187340
832351527662881792 -17615 -54037 -44254 -187295
832351527681094016 -17679 -54078 -44208 -187270
832351527699306368 -17811 -54081 -44226 -187312
832351527717518720 -17793 -54110 -44331 -187243
832351527735730944 -17940 -54188 -44292 -187239
832351527753943296 -17864 -54151 -44285 -187255
832351527772155520 -17787 -54097 -44236 -187261
832351527790367872 -17776 -54103 -44263 -187260
832351527808580096 -17734 -54071 -44277 -187263
832351527826792448 -17754 -54065 -44291 -187300
832351527845004672 -17622 -53979 -44259 -187258
832351527863217024 -17673 -53991 -44191 -187260
832351527881429376 -17620 -53955 -44196 -187276
832351527899641600 -26753 -58624 -45928 -187320
832351527917853952 -33913 -62282 -47371 -187286
832351527936066176 -37872 -64362 -48138 -187204
832351527954278528 -39914 -65462 -48589 -187269
832351527972490692 -40806 -65852 -48768 -187227
832351527990703872 -41093 -66038 -48841 -187265
832351528008916992 -41281 -66129 -48912 -187319
832351528027130112 -41269 -66099 -48831 -187271
832351528045343360 -41358 -66123 -48882 -187248
832351528063556480 -41299 -66066 -48841 -187260
832351528081769600 -41244 -66139 -48833 -187258
832351528099982720 -41322 -66142 -48873 -187277
832351528118195840 -41371 -66199 -48872 -187225
832351528136408960 -41479 -66226 -48874 -187270
832351528154622208 -41551 -66282 -48912 -187315
832351528172835328 -41530 -66282 -48905 -187307
832351528191048448 -41501 -66205 -48916 -187290
832351528209261568 -41390 -66159 -48901 -187326
832351528227474688 -41394 -66161 -48904 -187315
832351528245687808 -41380 -66164 -48897 -187282
832351528263901056 -41309 -66130 -48865 -187271
832351528282114176 -41351 -66150 -48893 -187312
832351528300327296 -41335 -66165 -48874 -187290
832351528318540416 -41389 -66200 -48914 -187293
832351528336753536 -41507 -66216 -48928 -187315
832351528354966656 -41592 -66231 -48850 -187308
832351528373179904 -41517 -66230 -48852 -187284
832351528391393024 -41459 -66181 -48880 -187277
832351528409606144 -41406 -66185 -48826 -187234
832351528427819264 -41314 -66179 -48853 -187259
832351528446032384 -41357 -66176 -48888 -187310
832351528464245632 -41265 -66069 -48828 -187305
832351528482458752 -41254 -66092 -48820 -187302
832351528500671872 -41325 -66096 -48845 -187243
832351528518884992 -41458 -66176 -48839 -187274
832351528537098112 -41493 -66228 -48854 -187276
832351528555311232 -41621 -66276 -48871 -187239
832351528573524480 -41546 -66270 -48929 -187304
832351528591737600 -41469 -66172 -48866 -187257
832351528609950720 -41470 -66198 -48909 -187293
832351528628163840 -41413 -66195 -48884 -187308
832351528646376960 -41416 -66195 -48943 -187303
832351528664590080 -41302 -66088 -48809 -187286
832351528682803328 -41351 -66155 -48828 -187271
832351528701016448 -41417 -66151 -48816 -187333
832351528719229568 -41482 -66180 -48858 -187265
832351528737442688 -41553 -66220 -48926 -187300
832351528755655808 -41564 -66222 -48922 -187232
832351528773869056 -41468 -66236 -48859 -187155
832351528792082098 -41450 -66200 -48885 -187266
832351528810295168 -41461 -66207 -48847 -187257
832351528828508288 -41384 -66172 -48852 -187241
832351528846721408 -41419 -66172 -48907 -187339
832351528864934656 -41281 -66165 -48855 -187217
832351528883147776 -41152 -66056 -48838 -187260
832351528901360896 -47743 -69549 -50301 -187277
832351528919574016 -53087 -72374 -51525 -187338
832351528937787136 -55883 -73837 -52214 -187217
832351528956000256 -57218 -74540 -52492 -187254
832351528974213504 -57890 -74935 -52689 -187256
832351528992426624 -58247 -75142 -52758 -187286
832351529010639744 -58303 -75182 -52811 -187255
832351529028852864 -58262 -75172 -52782 -187258
832351529047065984 -58309 -75159 -52777 -187299
832351529065279104 -58205 -75158 -52804 -187255
832351529083492352 -58274 -75133 -52830 -187281
832351529101705472 -58163 -75079 -52771 -187241
832351529119918592 -58173 -75072 -52772 -187212
832351529138131712 -58217 -75122 -52765 -187317
832351529156344832 -58254 -75154 -52770 -187255
832351529174558080 -58384 -75224 -52813 -187265
832351529192771200 -58330 -75270 -52836 -187248
832351529210984320 -58323 -75276 -52843 -187275
832351529229197440 -58296 -75160 -52863 -187229
832351529247410560 -58330 -75192 -52894 -187322
832351529265623680 -58291 -75149 -52847 -187284
832351529283836928 -58370 -75173 -52836 -187341
832351529302050048 -58239 -75127 -52812 -187303
832351529320263232 -58327 -75167 -52797 -187301
832351529338475520 -58341 -75206 -52812 -187293
832351529356687872 -58444 -75250 -52890 -187285
832351529374900224 -58430 -75267 -52794 -187293
832351529393112576 -58431 -75220 -52797 -187258
832351529411324928 -58400 -75235 -52773 -187300
832351529429537280 -58341 -75232 -52826 -187291
832351529447749504 -58293 -75236 -52853 -187277
832351529465961856 -58313 -75208 -52856 -187305
832351529484174208 -58354 -75139 -52890 -187316
832351529502386560 -58258 -75137 -52770 -187296
832351529520598912 -58241 -75165 -52801 -187287
832351529538811264 -58307 -75149 -52809 -187263
832351529557023616 -58390 -75177 -52836 -187340
832351529575235968 -58360 -75235 -52834 -187295
832351529593448320 -58408 -75271 -52823 -187246
832351529611660672 -58350 -75245 -52830 -187264
832351529629872896 -58348 -75237 -52853 -187281
832351529648085248 -58317 -75206 -52829 -187291
832351529666297600 -58317 -75191 -52808 -187321
832351529684509952 -58196 -75141 -52752 -187290
832351529702722304 -58222 -75091 -52728 -187284
832351529720934656 -58251 -75107 -52747 -187282
832351529739147008 -58329 -75131 -52826 -187225
832351529757359360 -58401 -75220 -52797 -187270
832351529775571712 -58491 -75263 -52841 -187309
832351529793784064 -58484 -75268 -52860 -187327
832351529811996288 -58439 -75192 -52808 -187295
832351529830208640 -58367 -75177 -52847 -187315
832351529848420992 -58292 -75194 -52816 -187272
832351529866633344 -58291 -75180 -52826 -187291
832351529884845696 -58215 -75123 -52868 -187274
832351529903058048 -62742 -77631 -54246 -187357
832351529921270400 -66525 -79721 -55584 -187319
832351529939482752 -68328 -80760 -56200 -187278
832351529957695104 -69245 -81312 -56528 -187324
832351529975907456 -69594 -81517 -56582 -187236
832351529994119680 -69919 -81687 -56748 -187300
832351530012332126 -69994 -81745 -56791 -187308
832351530030545280 -70048 -81780 -56800 -187305
832351530048758400 -69995 -81751 -56793 -187275
832351530066971520 -69984 -81759 -56772 -187349
832351530085184768 -69954 -81758 -56766 -187316
832351530103397888 -69976 -81756 -56730 -187257
832351530121611008 -69903 -81733 -56752 -187283
832351530139824128 -69786 -81636 -56729 -187273
832351530158037248 -69882 -81717 -56800 -187310
832351530176250368 -69983 -81764 -56831 -187278
832351530194463616 -70038 -81808 -56881 -187308
832351530212676736 -70080 -81837 -56855 -187275
832351530230889856 -70037 -81744 -56769 -187270
832351530249102976 -70058 -81761 -56800 -187278
832351530267316096 -69955 -81689 -56743 -187266
832351530285529216 -70020 -81685 -56817 -187289
832351530303742464 -69993 -81728 -56744 -187265
832351530321955584 -69869 -81681 -56756 -187257
832351530340168704 -69894 -81705 -56779 -187271
832351530358381824 -69916 -81667 -56761 -187304
832351530376594944 -69976 -81742 -56790 -187276
832351530394808064 -70035 -81735 -56774 -187275
832351530413021312 -70063 -81801 -56783 -187296
832351530431234432 -70052 -81746 -56810 -187332
832351530449447552 -70061 -81735 -56732 -187304
832351530467660672 -69991 -81705 -56707 -187240
832351530485873792 -69970 -81778 -56758 -187294
832351530504087040 -69925 -81769 -56806 -187312
832351530522300160 -69919 -81732 -56779 -187298
832351530540513280 -69943 -81693 -56769 -187270
832351530558726400 -69940 -81687 -56772 -187249
832351530576939520 -69997 -81737 -56769 -187271
832351530595152640 -70049 -81735 -56791 -187258
832351530613365888 -70059 -81821 -56848 -187292
832351530631579008 -69964 -81733 -56795 -187274
832351530649792128 -70033 -81695 -56772 -187282
832351530668005248 -69921 -81675 -56745 -187239
832351530686218368 -69892 -81722 -56806 -187278
832351530704431488 -69947 -81741 -56779 -187249
832351530722644736 -69893 -81665 -56718 -187269
832351530740857856 -69923 -81657 -56714 -187321
832351530759070976 -69954 -81689 -56719 -187321
832351530777284096 -70013 -81745 -56811 -187323
832351530795497216 -70081 -81758 -56778 -187276
832351530813710464 -70035 -81762 -56816 -187311
832351530831923584 -70032 -81716 -56790 -187276
832351530850136674 -70054 -81700 -56808 -187333
832351530868349696 -69987 -81753 -56756 -187320
832351530886562688 -69911 -81667 -56742 -187238
832351530904775680 -70008 -81729 -56753 -187329
832351530922988672 -73281 -83670 -58464 -187307
832351530941201664 -75721 -85122 -59810 -187316
832351530959414656 -76856 -85784 -60463 -187346
832351530977627648 -77420 -86165 -60725 -187295
832351530995840640 -77771 -86388 -60947 -187326
832351531014053632 -77916 -86415 -61044 -187346
832351531032266624 -77932 -86444 -61031 -187293
832351531050479616 -77916 -86466 -61071 -187305
832351531068692608 -77902 -86396 -60987 -187270
832351531086905600 -77870 -86424 -60986 -187260
832351531105118720 -77928 -86404 -61010 -187320
832351531123331712 -77888 -86381 -60999 -187320
832351531141544704 -77788 -86408 -61013 -187278
832351531159757696 -77784 -86398 -60954 -187239
832351531177970688 -77777 -86366 -60948 -187192
832351531196183680 -77888 -86452 -61013 -187285
832351531214396672 -77955 -86453 -61095 -187291
832351531232609664 -77998 -86527 -61149 -187291
832351531250822656 -77927 -86464 -61050 -187291
832351531269035648 -77900 -86465 -60990 -187290
832351531287248640 -77944 -86450 -61007 -187363
832351531305461632 -77849 -86381 -60936 -187338
832351531323674624 -77856 -86439 -60962 -187342
832351531341887616 -77854 -86332 -60985 -187305
832351531360100608 -77815 -86427 -60967 -187294
832351531378313600 -77873 -86395 -61032 -187316
832351531396526592 -77882 -86417 -61047 -187292
832351531414739584 -77976 -86433 -61093 -187250
832351531432952576 -77946 -86461 -61078 -187287
832351531451165568 -77936 -86453 -60991 -187260
832351531469378560 -77870 -86428 -60941 -187274
832351531487591552 -77849 -86466 -60986 -187266
832351531505804544 -77815 -86409 -60950 -187296
832351531524017536 -77833 -86383 -60950 -187274
832351531542230528 -77851 -86349 -60942 -187305
832351531560443520 -77787 -86350 -60940 -187296
832351531578656640 -77829 -86344 -60982 -187283
832351531596869632 -77946 -86410 -61027 -187328
832351531615082548 -77956 -86456 -61067 -187289
832351531633294336 -77956 -86490 -61035 -187278
832351531651506176 -77906 -86441 -61021 -187316
832351531669717888 -77904 -86369 -61061 -187237
832351531687929728 -77897 -86403 -61081 -187299
832351531706141568 -77919 -86418 -61076 -187272
832351531724353408 -77829 -86388 -60970 -187241
832351531742565120 -77796 -86418 -60957 -187306
832351531760776960 -77816 -86341 -60982 -187334
832351531778988800 -77881 -86413 -61036 -187322
832351531797200512 -77933 -86388 -61019 -187291
832351531815412352 -77957 -86432 -61087 -187281
832351531833624192 -77983 -86444 -61056 -187304
832351531851835904 -77912 -86416 -61032 -187258
832351531870047744 -77880 -86412 -61039 -187266
832351531888259584 -77884 -86394 -61018 -187241
832351531906471424 -79629 -87457 -62304 -187311
832351531924683136 -81528 -88639 -63959 -187346
832351531942894976 -82480 -89267 -64752 -187304
832351531961106816 -82854 -89504 -65034 -187319
832351531979318528 -83027 -89559 -65182 -187278
832351531997530368 -83100 -89600 -65243 -187260
832351532015742208 -83103 -89659 -65276 -187248
832351532033954048 -83192 -89641 -65353 -187285
832351532052165760 -83257 -89675 -65406 -187317
832351532070377600 -83317 -89749 -65450 -187344
832351532088589440 -83252 -89654 -65391 -187305
832351532106801152 -83224 -89728 -65417 -187319
832351532125012992 -83166 -89711 -65378 -187313
832351532143224832 -83206 -89708 -65371 -187346
832351532161436672 -83186 -89636 -65333 -187307
832351532179648384 -83117 -89606 -65332 -187295
832351532197860224 -83141 -89626 -65279 -187271
832351532216072064 -83195 -89659 -65327 -187322
832351532234283776 -83248 -89689 -65345 -187311
832351532252495616 -83257 -89752 -65418 -187352
832351532270707456 -83282 -89739 -65408 -187264
832351532288919168 -83244 -89692 -65343 -187267
832351532307131008 -83231 -89666 -65359 -187292
832351532325342848 -83176 -89674 -65354 -187251
832351532343554688 -83189 -89658 -65329 -187251
832351532361766456 -83165 -89678 -65306 -187249
832351532379979520 -83146 -89643 -65324 -187327
832351532398192640 -83112 -89641 -65303 -187341
832351532416405760 -83224 -89748 -65363 -187381
832351532434619008 -83199 -89676 -65344 -187286
832351532452832128 -83256 -89734 -65424 -187306
832351532471045248 -83255 -89736 -65429 -187289
832351532489258368 -83263 -89711 -65441 -187308
832351532507471488 -83231 -89701 -65371 -187320
832351532525684608 -83241 -89679 -65360 -187282
832351532543897856 -83196 -89680 -65349 -187322
832351532562110976 -83167 -89677 -65316 -187300
832351532580324096 -83126 -89636 -65263 -187346
832351532598537216 -83099 -89598 -65275 -187324
832351532616750336 -83191 -89680 -65289 -187283
832351532634963456 -83218 -89674 -65361 -187247
832351532653176704 -83288 -89696 -65366 -187242
832351532671389824 -83230 -89700 -65367 -187234
832351532689602944 -83191 -89714 -65320 -187281
832351532707816064 -83188 -89679 -65303 -187257
832351532726029184 -83158 -89670 -65252 -187222
832351532744242304 -83179 -89649 -65260 -187271
832351532762455552 -83202 -89692 -65244 -187304
832351532780668672 -83123 -89608 -65221 -187287
832351532798881792 -83172 -89668 -65224 -187272
832351532817094912 -83207 -89652 -65301 -187273
832351532835308032 -83211 -89623 -65315 -187229
832351532853521280 -83297 -89726 -65410 -187282
832351532871734400 -83182 -89673 -65347 -187232
832351532889947520 -83278 -89740 -65348 -187246
832351532908160640 -83219 -89687 -65336 -187278
832351532926373760 -84600 -90560 -66824 -187323
832351532944586880 -85803 -91366 -68340 -187329
832351532962800128 -86381 -91677 -68969 -187290
832351532981013248 -86634 -91873 -69219 -187295
832351532999226368 -86708 -91875 -69315 -187289
832351533017439488 -86767 -91949 -69363 -187303
832351533035652608 -86824 -91944 -69487 -187264
832351533053865728 -86870 -91974 -69516 -187284
832351533072078976 -86930 -92025 -69602 -187271
832351533090292096 -86943 -92006 -69630 -187294
832351533108505216 -86880 -91967 -69549 -187263
832351533126718336 -86879 -91941 -69513 -187304
832351533144931578 -86857 -91944 -69479 -187298
832351533163144064 -86823 -91993 -69520 -187304
832351533181356544 -86799 -91959 -69465 -187289
832351533199569024 -86817 -91982 -69441 -187272
832351533217781376 -86835 -91975 -69459 -187277
832351533235993856 -86831 -91980 -69489 -187300
832351533254206336 -86937 -92019 -69550 -187342
832351533272418816 -86944 -92008 -69580 -187294
832351533290631168 -86919 -91998 -69618 -187319
832351533308843648 -86933 -91892 -69602 -187295
832351533327056128 -86885 -91924 -69541 -187296
832351533345268608 -86875 -91933 -69527 -187330
832351533363480960 -86858 -91942 -69505 -187329
832351533381693440 -86894 -91957 -69502 -187339
832351533399905920 -86839 -91891 -69473 -187310
832351533418118400 -86866 -91923 -69445 -187250
832351533436330752 -86876 -91893 -69501 -187271
832351533454543232 -86892 -91956 -69543 -187320
832351533472755712 -86949 -91976 -69567 -187276
832351533490968192 -86943 -91932 -69512 -187285
832351533509180544 -86892 -91923 -69478 -187234
832351533527393024 -86861 -91940 -69426 -187309
832351533545605504 -86895 -91925 -69498 -187264
832351533563817984 -86890 -91970 -69428 -187311
832351533582030336 -86806 -91946 -69493 -187321
832351533600242816 -86826 -91907 -69472 -187328
832351533618455296 -86861 -91950 -69461 -187343
832351533636667776 -86874 -92009 -69498 -187260
832351533654880128 -86851 -91979 -69539 -187284
832351533673092608 -86900 -91993 -69587 -187270
832351533691305088 -86848 -91983 -69504 -187285
832351533709517568 -86827 -91975 -69495 -187277
832351533727729920 -86847 -92011 -69466 -187282
832351533745942400 -86851 -92022 -69494 -187263
832351533764154880 -86875 -91946 -69405 -187292
832351533782367360 -86760 -91964 -69408 -187287
832351533800579840 -86780 -91950 -69462 -187324
832351533818792192 -86797 -91925 -69491 -187289
832351533837004672 -86842 -91912 -69579 -187281
832351533855217152 -86845 -91945 -69522 -187268
832351533873429632 -86982 -91938 -69567 -187307
832351533891641984 -86879 -91931 -69443 -187220
832351533909854464 -87235 -92182 -70082 -187281
832351533928066944 -88490 -92966 -71997 -187306
832351533946279332 -89041 -93361 -72784 -187290
832351533964491520 -89232 -93478 -73098 -187344
832351533982703744 -89275 -93431 -73171 -187264
832351534000915840 -89339 -93493 -73271 -187265
832351534019128064 -89374 -93561 -73240 -187320
832351534037340160 -89332 -93518 -73206 -187301
832351534055552384 -89327 -93534 -73196 -187223
832351534073764608 -89366 -93499 -73271 -187218
832351534091976704 -89447 -93574 -73342 -187250
832351534110188928 -89471 -93569 -73384 -187338
832351534128401024 -89454 -93585 -73460 -187292
832351534146613248 -89471 -93560 -73360 -187242
832351534164825344 -89377 -93570 -73289 -187230
832351534183037568 -89444 -93596 -73318 -187274
832351534201249792 -89386 -93648 -73303 -187222
832351534219461888 -89379 -93563 -73260 -187284
832351534237674112 -89382 -93584 -73206 -187301
832351534255886208 -89362 -93548 -73155 -187277
832351534274098432 -89352 -93556 -73215 -187239
832351534292310656 -89457 -93565 -73356 -187257
832351534310522752 -89452 -93565 -73361 -187242
832351534328734976 -89414 -93613 -73395 -187298
832351534346947072 -89398 -93592 -73361 -187275
832351534365159296 -89396 -93591 -73344 -187289
832351534383371520 -89412 -93583 -73308 -187264
832351534401583616 -89348 -93486 -73278 -187266
832351534419795840 -89369 -93486 -73294 -187294
832351534438007936 -89333 -93499 -73243 -187264
832351534456220160 -89328 -93471 -73207 -187308
832351534474432256 -89419 -93612 -73332 -187313
832351534492644480 -89393 -93491 -73354 -187288
832351534510856704 -89381 -93563 -73354 -187220
832351534529068800 -89386 -93580 -73342 -187249
832351534547281024 -89401 -93539 -73291 -187233
832351534565493120 -89334 -93513 -73232 -187248
832351534583705344 -89394 -93531 -73262 -187286
832351534601917568 -89376 -93516 -73229 -187243
832351534620129664 -89357 -93528 -73265 -187270
832351534638341888 -89382 -93518 -73237 -187251
832351534656553984 -89407 -93510 -73207 -187263
832351534674766208 -89389 -93531 -73299 -187253
832351534692978432 -89453 -93545 -73339 -187277
832351534711190528 -89467 -93609 -73377 -187316
832351534729402752 -89415 -93575 -73364 -187286
832351534747614870 -89401 -93540 -73328 -187307
832351534765825664 -89349 -93542 -73239 -187266
832351534784036480 -89402 -93514 -73275 -187252
832351534802247296 -89377 -93457 -73271 -187264
832351534820457984 -89326 -93484 -73254 -187218
832351534838668800 -89344 -93429 -73182 -187298
832351534856879616 -89398 -93496 -73214 -187264
832351534875090432 -89343 -93475 -73247 -187182
832351534893301120 -89397 -93582 -73388 -187287
832351534911511936 -89465 -93578 -73401 -187306
832351534929722752 -89820 -93829 -74113 -187290
832351534947933568 -90591 -94265 -75572 -187296
832351534966144256 -91035 -94495 -76184 -187315
832351534984355072 -91161 -94567 -76474 -187266
832351535002565888 -91208 -94635 -76587 -187299
832351535020776704 -91224 -94631 -76563 -187272
832351535038987392 -91210 -94720 -76643 -187304
832351535057198208 -91170 -94680 -76517 -187320
832351535075409024 -91157 -94619 -76600 -187286
832351535093619840 -91226 -94667 -76558 -187288
832351535111830528 -91259 -94612 -76638 -187306
832351535130041344 -91225 -94642 -76695 -187317
832351535148252160 -91129 -94653 -76626 -187243
832351535166462976 -91188 -94677 -76637 -187278
832351535184673664 -91225 -94636 -76673 -187219
832351535202884480 -91224 -94686 -76593 -187246
832351535221095296 -91188 -94641 -76617 -187316
832351535239306112 -91164 -94670 -76601 -187310
832351535257516800 -91164 -94620 -76605 -187254
832351535275727616 -91180 -94679 -76619 -187273
832351535293938432 -91190 -94600 -76673 -187306
832351535312149248 -91226 -94695 -76745 -187310
832351535330359936 -91257 -94711 -76734 -187258
832351535348570752 -91249 -94665 -76681 -187288
832351535366781568 -91239 -94687 -76654 -187283
832351535384992384 -91194 -94658 -76622 -187299
832351535403203072 -91217 -94643 -76577 -187299
832351535421413888 -91175 -94619 -76574 -187200
832351535439624704 -91140 -94646 -76565 -187264
832351535457835520 -91182 -94650 -76569 -187289
832351535476046208 -91169 -94640 -76566 -187260
832351535494257024 -91224 -94718 -76640 -187293
832351535512467840 -91250 -94667 -76659 -187317
832351535530678656 -91287 -94631 -76781 -187327
832351535548889372 -91239 -94668 -76696 -187363
832351535567100032 -91224 -94668 -76677 -187306
832351535585310720 -91135 -94597 -76613 -187239
832351535603521280 -91163 -94604 -76613 -187241
832351535621731968 -91238 -94663 -76596 -187230
832351535639942528 -91186 -94660 -76550 -187263
832351535658153216 -91174 -94637 -76577 -187311
832351535676363904 -91219 -94638 -76614 -187276
832351535694574464 -91224 -94643 -76623 -187257
832351535712785152 -91278 -94676 -76708 -187295
832351535730995840 -91276 -94674 -76692 -187227
832351535749206400 -91254 -94641 -76615 -187235
832351535767417088 -91215 -94653 -76600 -187316
832351535785627648 -91159 -94635 -76611 -187278
832351535803838336 -91189 -94676 -76586 -187303
832351535822049024 -91217 -94634 -76626 -187294
832351535840259584 -91168 -94654 -76614 -187296
832351535858470272 -91216 -94675 -76590 -187366
832351535876680832 -91204 -94626 -76622 -187278
832351535894891520 -91268 -94642 -76666 -187325
832351535913102208 -91268 -94635 -76740 -187298
832351535931312768 -91255 -94659 -76738 -187345
832351535949523456 -91952 -95122 -78344 -187268
832351535967734016 -92346 -95344 -79075 -187317
832351535985944704 -92448 -95370 -79279 -187253
832351536004155392 -92525 -95423 -79380 -187367
832351536022365952 -92543 -95439 -79368 -187313
832351536040576640 -92568 -95463 -79467 -187350
832351536058787328 -92528 -95368 -79433 -187295
832351536076997888 -92433 -95453 -79436 -187267
832351536095208576 -92465 -95374 -79371 -187271
832351536113419136 -92517 -95417 -79436 -187283
832351536131629824 -92520 -95450 -79437 -187273
832351536149840512 -92516 -95477 -79475 -187298
832351536168051072 -92610 -95489 -79605 -187317
832351536186261760 -92539 -95505 -79526 -187315
832351536204472320 -92565 -95443 -79466 -187286
832351536222683008 -92550 -95441 -79450 -187272
832351536240893696 -92533 -95429 -79435 -187256
832351536259104270 -92522 -95486 -79443 -187244
832351536277316736 -92525 -95431 -79395 -187340
832351536295529216 -92481 -95455 -79385 -187264
832351536313741696 -92488 -95417 -79407 -187285
832351536331954176 -92517 -95433 -79483 -187376
832351536350166656 -92564 -95452 -79559 -187341
832351536368379008 -92527 -95447 -79539 -187252
832351536386591488 -92530 -95401 -79443 -187238
832351536404803968 -92511 -95386 -79465 -187256
832351536423016448 -92547 -95436 -79454 -187251
832351536441228928 -92441 -95340 -79368 -187171
832351536459441408 -92535 -95404 -79432 -187252
832351536477653888 -92481 -95386 -79335 -187220
832351536495866368 -92489 -95425 -79398 -187274
832351536514078720 -92530 -95363 -79428 -187229
832351536532291200 -92543 -95391 -79523 -187230
832351536550503680 -92543 -95396 -79517 -187243
832351536568716160 -92552 -95402 -79566 -187303
832351536586928640 -92553 -95392 -79480 -187320
832351536605141120 -92551 -95414 -79436 -187281
832351536623353600 -92528 -95380 -79448 -187296
832351536641566080 -92524 -95424 -79471 -187310
832351536659778432 -92519 -95377 -79433 -187282
832351536677990912 -92484 -95344 -79354 -187238
832351536696203392 -92515 -95361 -79447 -187277
832351536714415872 -92496 -95380 -79465 -187283
832351536732628352 -92552 -95369 -79517 -187272
832351536750840832 -92546 -95332 -79506 -187266
832351536769053312 -92565 -95404 -79499 -187255
832351536787265792 -92552 -95422 -79492 -187281
832351536805478144 -92541 -95408 -79442 -187320
832351536823690624 -92488 -95385 -79433 -187291
832351536841903104 -92484 -95388 -79481 -187269
832351536860115584 -92496 -95413 -79432 -187313
832351536878328064 -92526 -95367 -79379 -187285
832351536896540544 -92489 -95422 -79399 -187272
832351536914753024 -92522 -95444 -79488 -187302
832351536932965504 -92553 -95423 -79472 -187264
832351536951177856 -92603 -95460 -79711 -187302
832351536969390336 -93103 -95730 -80910 -187282
832351536987602816 -93341 -95892 -81502 -187300
832351537005815296 -93422 -95941 -81641 -187276
832351537024027776 -93433 -96009 -81704 -187298
832351537042240256 -93428 -96044 -81790 -187260
832351537060452736 -93424 -95984 -81727 -187256
832351537078665158 -93472 -95994 -81757 -187272
832351537096877056 -93481 -95996 -81718 -187282
832351537115088896 -93496 -96008 -81753 -187284
832351537133300864 -93458 -95973 -81774 -187230
832351537151512704 -93486 -95972 -81841 -187275
832351537169724544 -93563 -95998 -81892 -187315
832351537187936384 -93543 -95998 -81904 -187250
832351537206148352 -93513 -95953 -81886 -187282
832351537224360192 -93475 -95912 -81826 -187246
832351537242572032 -93475 -95938 -81837 -187283
832351537260784000 -93465 -95958 -81732 -187286
832351537278995840 -93414 -95887 -81673 -187286
832351537297207680 -93423 -95932 -81677 -187265
832351537315419520 -93416 -95959 -81705 -187258
832351537333631488 -93443 -95955 -81779 -187247
832351537351843328 -93414 -95980 -81859 -187272
832351537370055168 -93498 -95990 -81908 -187275
832351537388267136 -93480 -96003 -81913 -187221
832351537406478976 -93496 -96017 -81828 -187265
832351537424690816 -93473 -95957 -81797 -187325
832351537442902656 -93472 -95945 -81741 -187302
832351537461114624 -93482 -95999 -81773 -187303
832351537479326464 -93469 -95983 -81800 -187256
832351537497538304 -93438 -95953 -81793 -187311
832351537515750144 -93485 -95930 -81819 -187310
832351537533962112 -93522 -96035 -81876 -187284
832351537552173952 -93506 -96049 -81929 -187283
832351537570385792 -93478 -96008 -81908 -187263
832351537588597760 -93474 -96024 -81876 -187247
832351537606809600 -93482 -95968 -81804 -187294
832351537625021440 -93509 -95996 -81841 -187287
832351537643233280 -93534 -95967 -81803 -187269
832351537661445248 -93535 -95956 -81844 -187241
832351537679657088 -93503 -96011 -81785 -187286
832351537697868928 -93496 -95986 -81713 -187259
832351537716080896 -93530 -96088 -81842 -187302
832351537734292736 -93529 -96053 -81788 -187298
832351537752504576 -93551 -96062 -81853 -187300
832351537770716416 -93536 -96008 -81913 -187248
832351537788928384 -93512 -95999 -81908 -187247
832351537807140224 -93505 -95946 -81786 -187223
832351537825352064 -93491 -95999 -81746 -187309
832351537843564032 -93509 -95940 -81734 -187291
832351537861775872 -93477 -96027 -81777 -187268
832351537879987712 -93510 -96058 -81741 -187318
832351537898199552 -93495 -96025 -81752 -187274
832351537916411520 -93485 -96066 -81842 -187291
832351537934623336 -93529 -96036 -81880 -187336
832351537952836480 -93378 -95962 -81757 -187252
832351537971049600 -93906 -96255 -82956 -187238
832351537989262720 -94164 -96330 -83504 -187295
832351538007475840 -94178 -96428 -83689 -187291
832351538025688960 -94239 -96443 -83722 -187248
832351538043901952 -94250 -96449 -83767 -187354
832351538062115072 -94228 -96441 -83820 -187309
832351538080328192 -94264 -96434 -83829 -187350
832351538098541312 -94253 -96429 -83775 -187353
832351538116754432 -94225 -96408 -83779 -187308
832351538134967552 -94209 -96385 -83724 -187313
832351538153180672 -94192 -96482 -83801 -187318
832351538171393792 -94308 -96470 -83806 -187383
832351538189606912 -94283 -96470 -83845 -187298
832351538207819904 -94245 -96423 -83803 -187281
832351538226033024 -94258 -96362 -83783 -187284
832351538244246144 -94285 -96407 -83783 -187329
832351538262459264 -94259 -96412 -83750 -187296
832351538280672384 -94262 -96423 -83782 -187275
832351538298885504 -94274 -96419 -83765 -187282
832351538317098624 -94288 -96417 -83726 -187351
832351538335311744 -94237 -96414 -83764 -187325
832351538353524736 -94223 -96348 -83740 -187254
832351538371737856 -94269 -96357 -83816 -187302
832351538389950976 -94301 -96423 -83878 -187339
832351538408164096 -94305 -96351 -83851 -187319
832351538426377216 -94280 -96431 -83834 -187288
832351538444590336 -94300 -96429 -83774 -187300
832351538462803456 -94195 -96443 -83720 -187256
832351538481016576 -94218 -96420 -83685 -187271
832351538499229696 -94216 -96359 -83719 -187259
832351538517442688 -94160 -96346 -83635 -187217
832351538535655808 -94220 -96411 -83706 -187289
832351538553868928 -94245 -96367 -83753 -187225
832351538572082048 -94234 -96329 -83835 -187286
832351538590295168 -94308 -96425 -83809 -187265
832351538608508288 -94237 -96383 -83807 -187264
832351538626721408 -94263 -96383 -83821 -187293
832351538644934528 -94210 -96366 -83782 -187278
832351538663147648 -94271 -96429 -83772 -187295
832351538681360658 -94232 -96395 -83736 -187242
832351538699572480 -94209 -96379 -83711 -187277
832351538717784320 -94175 -96430 -83707 -187213
832351538735996160 -94185 -96365 -83746 -187285
832351538754207872 -94191 -96374 -83781 -187244
832351538772419712 -94178 -96399 -83808 -187201
832351538790631552 -94212 -96335 -83766 -187203
832351538808843392 -94236 -96390 -83748 -187218
832351538827055232 -94240 -96346 -83683 -187298
832351538845266944 -94206 -96358 -83711 -187232
832351538863478784 -94211 -96361 -83769 -187250
832351538881690624 -94202 -96369 -83736 -187224
832351538899902464 -94227 -96389 -83780 -187246
832351538918114304 -94191 -96347 -83675 -187244
832351538936326144 -94252 -96400 -83770 -187260
832351538954537856 -94185 -96372 -83668 -187321
832351538972749696 -94475 -96502 -84562 -187221
832351538990961536 -94671 -96576 -85031 -187224
832351539009173376 -94714 -96654 -85210 -187208
832351539027385216 -94736 -96737 -85384 -187263
832351539045596928 -94807 -96697 -85445 -187287
832351539063808768 -94771 -96624 -85334 -187221
832351539082020608 -94776 -96673 -85380 -187275
832351539100232448 -94803 -96633 -85378 -187268
832351539118444288 -94768 -96658 -85384 -187252
832351539136656000 -94804 -96670 -85304 -187283
832351539154867840 -94749 -96707 -85264 -187303
832351539173079680 -94748 -96732 -85305 -187351
832351539191291520 -94776 -96730 -85328 -187327
832351539209503360 -94789 -96733 -85375 -187330
832351539227715072 -94813 -96676 -85388 -187317
832351539245926912 -94807 -96671 -85390 -187269
832351539264138752 -94803 -96682 -85339 -187242
832351539282350592 -94819 -96703 -85306 -187249
832351539300562432 -94758 -96640 -85325 -187231
832351539318774144 -94786 -96687 -85328 -187235
832351539336985984 -94781 -96639 -85282 -187221
832351539355197824 -94751 -96679 -85291 -187229
832351539373409664 -94696 -96676 -85276 -187251
832351539391621504 -94735 -96691 -85326 -187227
832351539409833344 -94811 -96703 -85342 -187256
832351539428045056 -94831 -96707 -85391 -187268
832351539446256896 -94804 -96730 -85421 -187263
832351539464468736 -94793 -96697 -85351 -187277
832351539482680576 -94775 -96652 -85326 -187241
832351539500892416 -94810 -96677 -85310 -187268
832351539519104170 -94807 -96637 -85255 -187231
832351539537317632 -94747 -96631 -85286 -187226
832351539555531136 -94695 -96610 -85236 -187216
832351539573744512 -94743 -96667 -85298 -187208
832351539591958016 -94765 -96665 -85328 -187251
832351539610171520 -94768 -96692 -85361 -187231
832351539628384896 -94819 -96716 -85417 -187283
832351539646598400 -94873 -96748 -85409 -187289
832351539664811904 -94789 -96680 -85302 -187303
832351539683025280 -94716 -96675 -85344 -187240
832351539701238784 -94779 -96719 -85364 -187267
832351539719452288 -94765 -96679 -85359 -187284
832351539737665664 -94781 -96664 -85295 -187296
832351539755879168 -94751 -96636 -85311 -187265
832351539774092672 -94787 -96642 -85327 -187205
832351539792306048 -94735 -96670 -85295 -187224
832351539810519552 -94778 -96673 -85301 -187206
832351539828733056 -94876 -96728 -85492 -187253
832351539846946432 -94766 -96720 -85378 -187216
832351539865159936 -94766 -96650 -85315 -187243
832351539883373440 -94828 -96735 -85340 -187281
832351539901586816 -94803 -96706 -85321 -187294
832351539919800320 -94764 -96692 -85293 -187268
832351539938013824 -94823 -96663 -85265 -187291
832351539956227200 -94772 -96613 -85181 -187308
832351539974440704 -94985 -96789 -85973 -187274
832351539992654208 -95071 -96881 -86295 -187268
832351540010867584 -95181 -96896 -86496 -187295
832351540029081088 -95182 -96808 -86568 -187281
832351540047294592 -95205 -96927 -86639 -187310
832351540065507968 -95243 -96925 -86748 -187258
832351540083721472 -95256 -96974 -86717 -187290
832351540101934976 -95282 -96966 -86694 -187218
832351540120148352 -95247 -96965 -86672 -187294
832351540138361856 -95272 -96897 -86633 -187299
832351540156575360 -95235 -96942 -86623 -187272
832351540174788736 -95195 -96975 -86586 -187231
832351540193002240 -95242 -96956 -86583 -187257
832351540211215744 -95217 -96861 -86598 -187243
832351540229429120 -95204 -96878 -86667 -187197
832351540247642624 -95213 -96902 -86705 -187207
832351540265856128 -95223 -96935 -86697 -187299
832351540284069504 -95207 -96936 -86681 -187292
832351540302283026 -95240 -96906 -86657 -187234
832351540320495872 -95207 -96881 -86691 -187256
832351540338708736 -95223 -96883 -86651 -187276
832351540356921472 -95185 -96893 -86600 -187286
832351540375134336 -95222 -96960 -86607 -187286
832351540393347200 -95200 -96986 -86629 -187250
832351540411560064 -95172 -96902 -86600 -187256
832351540429772800 -95215 -96913 -86666 -187275
832351540447985664 -95286 -96926 -86715 -187330
832351540466198528 -95202 -96946 -86695 -187272
832351540484411392 -95191 -96928 -86677 -187287
832351540502624128 -95236 -96958 -86672 -187261
832351540520836992 -95192 -96906 -86588 -187249
832351540539049856 -95204 -96973 -86621 -187242
832351540557262720 -95212 -96963 -86656 -187240
832351540575475456 -95191 -96891 -86591 -187273
832351540593688320 -95186 -96950 -86619 -187259
832351540611901184 -95260 -96983 -86687 -187306
832351540630114048 -95257 -96946 -86701 -187303
832351540648326784 -95250 -96898 -86699 -187283
832351540666539648 -95235 -96960 -86723 -187281
832351540684752512 -95228 -96956 -86681 -187285
832351540702965248 -95209 -96913 -86672 -187281
832351540721178112 -95208 -96910 -86613 -187260
832351540739390976 -95188 -96870 -86619 -187240
832351540757603840 -95192 -96927 -86625 -187257
832351540775816576 -95202 -96957 -86595 -187250
832351540794029440 -95223 -96956 -86670 -187235
832351540812242304 -95232 -96932 -86651 -187259
832351540830455168 -95219 -96962 -86737 -187254
832351540848667904 -95262 -96960 -86775 -187254
832351540866880768 -95259 -96920 -86707 -187253
832351540885093632 -95273 -96924 -86694 -187296
832351540903306496 -95256 -96886 -86627 -187287
832351540921519232 -95186 -96911 -86665 -187256
832351540939732096 -95224 -96929 -86659 -187256
832351540957944960 -95222 -96956 -86659 -187282
832351540976157824 -95236 -96963 -86677 -187268
832351540994370560 -95414 -97024 -87251 -187266
832351541012583424 -95492 -97060 -87487 -187276
832351541030796288 -95576 -97085 -87615 -187255
832351541049009024 -95521 -97069 -87683 -187221
832351541067221888 -95594 -97090 -87808 -187232
832351541085434752 -95579 -97010 -87845 -187252
832351541103647556 -95528 -97069 -87734 -187275
832351541121860736 -95546 -97097 -87687 -187295
832351541140073856 -95512 -97118 -87708 -187278
832351541158286976 -95572 -97133 -87710 -187189
832351541176500224 -95583 -97090 -87726 -187273
832351541194713344 -95559 -97084 -87709 -187282
832351541212926464 -95560 -97078 -87734 -187281
832351541231139584 -95644 -97150 -87830 -187277
832351541249352704 -95625 -97131 -87820 -187271
832351541267565824 -95591 -97099 -87770 -187241
832351541285779072 -95525 -97060 -87772 -187226
832351541303992192 -95533 -97105 -87719 -187301
832351541322205312 -95557 -97129 -87702 -187259
832351541340418432 -95613 -97148 -87695 -187309
832351541358631552 -95601 -97093 -87708 -187337
832351541376844672 -95594 -97096 -87701 -187305
832351541395057920 -95542 -97060 -87656 -187241
832351541413271040 -95581 -97112 -87739 -187283
832351541431484160 -95594 -97129 -87777 -187253
832351541449697280 -95574 -97128 -87795 -187233
832351541467910400 -95581 -97085 -87777 -187264
832351541486123648 -95590 -97102 -87713 -187278
832351541504336768 -95611 -97127 -87752 -187322
832351541522549888 -95558 -97149 -87745 -187263
832351541540763008 -95575 -97079 -87676 -187174
832351541558976128 -95561 -97046 -87676 -187235
832351541577189248 -95567 -97081 -87679 -187249
832351541595402496 -95584 -97077 -87647 -187282
832351541613615616 -95591 -97156 -87692 -187315
832351541631828736 -95594 -97133 -87752 -187295
832351541650041856 -95581 -97130 -87738 -187270
832351541668254976 -95600 -97151 -87798 -187324
832351541686468096 -95609 -97137 -87727 -187292
832351541704681344 -95548 -97077 -87694 -187310
832351541722894464 -95577 -97047 -87727 -187215
832351541741107584 -95582 -97076 -87696 -187214
832351541759320704 -95592 -97068 -87701 -187258
832351541777533824 -95604 -97154 -87684 -187269
832351541795746944 -95531 -97081 -87667 -187222
832351541813960192 -95608 -97032 -87781 -187268
832351541832173312 -95566 -97067 -87734 -187263
832351541850386432 -95561 -97105 -87761 -187253
832351541868599552 -95565 -97106 -87820 -187258
832351541886812672 -95592 -97084 -87739 -187243
832351541905025920 -95636 -97134 -87695 -187243
832351541923239040 -95592 -97140 -87700 -187261
832351541941452160 -95589 -97076 -87716 -187313
832351541959665280 -95596 -97124 -87716 -187300
832351541977878400 -95784 -97184 -88237 -187300
832351541996091520 -95813 -97219 -88408 -187287
832351542014304680 -95813 -97255 -88502 -187345
832351542032516480 -95809 -97220 -88550 -187272
832351542050728320 -95868 -97259 -88559 -187367
832351542068940032 -95819 -97256 -88601 -187286
832351542087151872 -95840 -97300 -88635 -187240
832351542105363712 -95884 -97236 -88656 -187237
832351542123575552 -95914 -97266 -88693 -187240
832351542141787264 -95890 -97245 -88637 -187258
832351542159999104 -95887 -97300 -88682 -187247
832351542178210944 -95848 -97270 -88580 -187219
832351542196422784 -95854 -97243 -88569 -187224
832351542214634496 -95813 -97247 -88623 -187299
832351542232846336 -95784 -97254 -88591 -187226
832351542251058176 -95806 -97200 -88478 -187219
832351542269270016 -95815 -97251 -88603 -187264
832351542287481728 -95837 -97277 -88645 -187272
832351542305693568 -95880 -97265 -88657 -187281
832351542323905408 -95839 -97216 -88623 -187253
832351542342117248 -95891 -97252 -88684 -187247
832351542360328960 -95811 -97310 -88598 -187277
832351542378540800 -95855 -97211 -88579 -187246
832351542396752640 -95846 -97259 -88549 -187271
832351542414964480 -95854 -97274 -88631 -187269
832351542433176192 -95837 -97201 -88558 -187250
832351542451388032 -95856 -97242 -88622 -187277
832351542469599872 -95886 -97271 -88634 -187302
832351542487811712 -95928 -97294 -88718 -187267
832351542506023424 -95838 -97243 -88665 -187237
832351542524235264 -95834 -97242 -88647 -187223
832351542542447104 -95908 -97287 -88613 -187290
832351542560658944 -95890 -97238 -88571 -187227
832351542578870656 -95874 -97279 -88612 -187233
832351542597082496 -95856 -97154 -88546 -187241
832351542615294336 -95863 -97229 -88600 -187271
832351542633506176 -95879 -97249 -88574 -187231
832351542651717888 -95844 -97242 -88584 -187251
832351542669929728 -95815 -97210 -88569 -187206
832351542688141568 -95892 -97312 -88676 -187299
832351542706353280 -95891 -97185 -88629 -187255
832351542724565120 -95911 -97206 -88620 -187250
832351542742776960 -95871 -97243 -88627 -187265
832351542760988800 -95858 -97236 -88602 -187225
832351542779200512 -95871 -97266 -88623 -187270
832351542797412352 -95871 -97228 -88617 -187273
832351542815624192 -95960 -97271 -88645 -187332
832351542833836032 -95821 -97222 -88586 -187293
832351542852047744 -95939 -97250 -88659 -187302
832351542870259584 -95923 -97226 -88632 -187282
832351542888471422 -95865 -97212 -88619 -187239
832351542906683392 -95914 -97229 -88699 -187281
832351542924895360 -95895 -97317 -88637 -187326
832351542943107328 -95877 -97222 -88597 -187296
832351542961319296 -95841 -97229 -88586 -187285
832351542979531264 -95819 -97179 -88561 -187270
832351542997743232 -95997 -97268 -89025 -187292
832351543015955200 -96023 -97362 -89236 -187346
832351543034167168 -96026 -97395 -89349 -187275
832351543052379008 -96021 -97359 -89304 -187298
832351543070590976 -96034 -97344 -89351 -187256
832351543088802944 -96075 -97346 -89363 -187281
832351543107014912 -96110 -97361 -89437 -187273
832351543125226880 -96089 -97431 -89451 -187266
832351543143438848 -96100 -97366 -89393 -187236
832351543161650816 -96105 -97347 -89362 -187225
832351543179862784 -96027 -97363 -89315 -187255
832351543198074752 -96096 -97319 -89368 -187212
832351543216286720 -96113 -97372 -89381 -187214
832351543234498688 -96108 -97344 -89326 -187225
832351543252710656 -96079 -97433 -89348 -187286
832351543270922624 -96139 -97400 -89376 -187266
832351543289134592 -96109 -97374 -89414 -187305
832351543307346432 -96094 -97367 -89376 -187238
832351543325558400 -96109 -97392 -89407 -187291
832351543343770368 -96058 -97310 -89289 -187217
832351543361982336 -96143 -97363 -89346 -187252
832351543380194304 -96041 -97354 -89321 -187277
832351543398406272 -96052 -97329 -89304 -187248
832351543416618240 -96043 -97362 -89305 -187257
832351543434830208 -96058 -97346 -89330 -187260
832351543453042176 -96120 -97335 -89323 -187317
832351543471254144 -96069 -97331 -89319 -187288
832351543489466112 -96069 -97368 -89382 -187257
832351543507678080 -96116 -97375 -89453 -187241
832351543525890048 -96158 -97359 -89386 -187294
832351543544102016 -96118 -97380 -89336 -187267
832351543562313984 -96047 -97368 -89311 -187242
832351543580525824 -96023 -97323 -89335 -187222
832351543598737792 -96099 -97308 -89374 -187288
832351543616949760 -96074 -97324 -89298 -187266
832351543635161728 -96079 -97356 -89306 -187307
832351543653373696 -96066 -97425 -89360 -187286
832351543671585664 -96067 -97379 -89368 -187344
832351543689797632 -96055 -97290 -89299 -187259
832351543708009600 -96120 -97392 -89422 -187284
832351543726221568 -96088 -97365 -89363 -187302
832351543744433536 -96081 -97350 -89343 -187270
832351543762645504 -96049 -97279 -89322 -187258
832351543780857422 -96123 -97388 -89368 -187274
832351543799069952 -96072 -97353 -89278 -187247
832351543817282432 -96031 -97385 -89297 -187295
832351543835495040 -96032 -97366 -89322 -187231
832351543853707520 -96061 -97373 -89327 -187269
832351543871920000 -96072 -97297 -89318 -187209
832351543890132608 -96062 -97319 -89357 -187263
832351543908345088 -96069 -97334 -89332 -187261
832351543926557568 -96055 -97324 -89339 -187189
832351543944770048 -96091 -97299 -89369 -187212
832351543962982656 -96060 -97321 -89303 -187222
832351543981195136 -96095 -97364 -89315 -187230
832351543999407616 -96136 -97433 -89642 -187240
832351544017620224 -96180 -97426 -89815 -187197
832351544035832704 -96161 -97436 -89833 -187257
832351544054045184 -96187 -97446 -89920 -187274
832351544072257792 -96250 -97431 -90038 -187344
832351544090470272 -96223 -97397 -89949 -187197
832351544108682752 -96236 -97408 -89947 -187233
832351544126895360 -96291 -97407 -89957 -187249
832351544145107840 -96248 -97381 -89965 -187285
832351544163320320 -96249 -97449 -89994 -187213
832351544181532800 -96332 -97431 -89941 -187234
832351544199745408 -96297 -97468 -89950 -187263
832351544217957888 -96274 -97433 -89999 -187285
832351544236170368 -96241 -97434 -89984 -187239
832351544254382976 -96260 -97464 -89962 -187237
832351544272595456 -96236 -97479 -89911 -187243
832351544290807936 -96254 -97439 -89975 -187220
832351544309020544 -96272 -97452 -89988 -187290
832351544327233024 -96280 -97488 -89952 -187290
832351544345445504 -96280 -97464 -89965 -187284
832351544363658112 -96236 -97417 -90001 -187261
832351544381870592 -96220 -97483 -89973 -187240
832351544400083072 -96264 -97512 -90016 -187260
832351544418295552 -96265 -97453 -89944 -187288
832351544436508160 -96255 -97418 -89927 -187222
832351544454720640 -96246 -97450 -89913 -187187
832351544472933120 -96270 -97436 -89898 -187276
832351544491145728 -96288 -97510 -90007 -187291
832351544509358208 -96277 -97496 -90001 -187308
832351544527570688 -96255 -97474 -89992 -187246
832351544545783296 -96239 -97466 -89983 -187290
832351544563995776 -96294 -97517 -89999 -187327
832351544582208256 -96279 -97507 -89962 -187335
832351544600420864 -96297 -97495 -89925 -187272
832351544618633344 -96307 -97467 -89922 -187220
832351544636845824 -96315 -97491 -89977 -187226
832351544655058432 -96260 -97458 -89949 -187242
832351544673270878 -96247 -97473 -89932 -187271
832351544691482752 -96260 -97505 -89905 -187236
832351544709694592 -96280 -97477 -89949 -187261
832351544727906432 -96300 -97459 -89979 -187296
832351544746118144 -96283 -97416 -89987 -187305
832351544764329984 -96236 -97448 -89996 -187291
832351544782541824 -96243 -97449 -89985 -187272
832351544800753664 -96269 -97457 -90035 -187283
832351544818965504 -96288 -97437 -90001 -187276
832351544837177216 -96271 -97405 -89953 -187260
832351544855389056 -96255 -97391 -89937 -187241
832351544873600896 -96296 -97475 -90001 -187335
832351544891812736 -96247 -97427 -89950 -187267
832351544910024576 -96276 -97491 -89949 -187273
832351544928236416 -96314 -97439 -89998 -187275
832351544946448128 -96323 -97450 -90042 -187345
832351544964659968 -96303 -97405 -90001 -187344
832351544982871808 -96277 -97454 -90008 -187288
832351545001083648 -96399 -97493 -90248 -187261
832351545019295488 -96418 -97566 -90437 -187342
832351545037507200 -96469 -97585 -90461 -187301
832351545055719040 -96410 -97576 -90509 -187242
832351545073930880 -96430 -97550 -90512 -187256
832351545092142720 -96404 -97494 -90476 -187254
832351545110354560 -96427 -97504 -90461 -187235
832351545128566272 -96414 -97523 -90485 -187296
832351545146778112 -96460 -97575 -90492 -187295
832351545164989952 -96474 -97570 -90528 -187276
832351545183201792 -96498 -97539 -90563 -187260
832351545201413632 -96472 -97550 -90475 -187223
832351545219625344 -96431 -97515 -90471 -187261
832351545237837184 -96465 -97541 -90491 -187201
832351545256049024 -96390 -97535 -90472 -187237
832351545274260864 -96444 -97602 -90514 -187267
832351545292472704 -96390 -97545 -90471 -187292
832351545310684416 -96374 -97535 -90463 -187253
832351545328896256 -96395 -97492 -90473 -187209
832351545347108096 -96448 -97472 -90500 -187217
832351545365319936 -96487 -97510 -90530 -187247
832351545383531776 -96460 -97510 -90509 -187241
832351545401743616 -96415 -97572 -90463 -187244
832351545419955328 -96425 -97549 -90483 -187221
832351545438167168 -96428 -97530 -90500 -187215
832351545456379008 -96447 -97558 -90483 -187237
832351545474590848 -96464 -97558 -90519 -187312
832351545492802688 -96427 -97542 -90490 -187261
832351545511014390 -96453 -97539 -90509 -187257
832351545529226240 -96440 -97589 -90486 -187304
832351545547438080 -96487 -97589 -90504 -187307
832351545565649792 -96462 -97594 -90473 -187270
832351545583861632 -96480 -97515 -90513 -187247
832351545602073344 -96421 -97507 -90445 -187282
832351545620285184 -96411 -97566 -90500 -187282
832351545638496896 -96368 -97481 -90426 -187218
832351545656708736 -96397 -97465 -90495 -187249
832351545674920576 -96409 -97539 -90478 -187241
832351545693132288 -96368 -97544 -90454 -187203
832351545711344128 -96376 -97527 -90454 -187206
832351545729555840 -96450 -97529 -90533 -187296
832351545747767680 -96443 -97506 -90460 -187264
832351545765979520 -96402 -97507 -90523 -187282
832351545784191232 -96423 -97493 -90529 -187258
832351545802403072 -96406 -97534 -90486 -187311
832351545820614784 -96442 -97534 -90491 -187292
832351545838826624 -96419 -97598 -90491 -187300
832351545857038336 -96387 -97491 -90488 -187302
832351545875250176 -96455 -97559 -90489 -187296
832351545893462016 -96495 -97581 -90505 -187332
832351545911673728 -96425 -97538 -90499 -187276
832351545929885568 -96488 -97519 -90539 -187305
832351545948097280 -96443 -97575 -90561 -187307
832351545966309120 -96509 -97577 -90526 -187302
832351545984520832 -96435 -97530 -90495 -187252
832351546002732672 -96430 -97556 -90498 -187253
832351546020944512 -96518 -97556 -90748 -187295
832351546039156224 -96549 -97577 -90816 -187316
832351546057368064 -96606 -97621 -90913 -187273
832351546075579776 -96553 -97574 -90927 -187276
832351546093791616 -96567 -97566 -90975 -187277
832351546112003456 -96572 -97583 -90940 -187300
832351546130215168 -96578 -97634 -90951 -187315
832351546148427008 -96576 -97549 -90920 -187275
832351546166638720 -96580 -97578 -90961 -187281
832351546184850560 -96606 -97585 -90988 -187248
832351546203062272 -96611 -97617 -90975 -187281
832351546221274112 -96569 -97545 -90895 -187274
832351546239485952 -96601 -97590 -90871 -187306
832351546257697664 -96534 -97608 -90875 -187275
832351546275909504 -96555 -97655 -90946 -187246
832351546294121216 -96551 -97600 -90957 -187292
832351546312333056 -96585 -97617 -90933 -187286
832351546330544768 -96562 -97603 -91003 -187308
832351546348758272 -96590 -97557 -90940 -187319
832351546366971776 -96629 -97652 -90946 -187281
832351546385185280 -96610 -97623 -90950 -187284
832351546403398784 -96634 -97618 -90973 -187303
832351546421612416 -96588 -97590 -90964 -187286
832351546439825920 -96570 -97574 -90941 -187289
832351546458039424 -96513 -97555 -90949 -187292
832351546476252928 -96492 -97568 -90932 -187268
832351546494466432 -96516 -97576 -90958 -187236
832351546512679936 -96559 -97602 -90938 -187243
832351546530893568 -96577 -97592 -90965 -187225
832351546549107072 -96547 -97615 -90970 -187290
832351546567320576 -96536 -97634 -91014 -187340
832351546585534080 -96588 -97619 -91023 -187346
832351546603747584 -96623 -97654 -91023 -187319
832351546621961088 -96542 -97639 -90994 -187317
832351546640174592 -96557 -97677 -90969 -187326
832351546658388224 -96574 -97625 -90957 -187258
832351546676601728 -96581 -97601 -90967 -187286
832351546694815232 -96590 -97710 -90994 -187283
832351546713028736 -96554 -97687 -90994 -187341
832351546731242240 -96590 -97601 -90955 -187343
832351546749455744 -96530 -97569 -90952 -187264
832351546767669376 -96591 -97632 -90916 -187306
832351546785882880 -96571 -97595 -90886 -187310
832351546804096384 -96599 -97645 -90971 -187283
832351546822309888 -96603 -97638 -90871 -187329
832351546840523392 -96550 -97601 -90993 -187306
832351546858736896 -96543 -97615 -90926 -187285
832351546876950400 -96536 -97609 -90946 -187264
832351546895164032 -96530 -97627 -90982 -187298
832351546913377536 -96564 -97597 -90923 -187296
832351546931591040 -96577 -97564 -90917 -187315
832351546949804544 -96533 -97619 -90906 -187299
832351546968018048 -96604 -97623 -90949 -187320
832351546986231552 -96594 -97601 -91012 -187335
832351547004445184 -96629 -97611 -90967 -187330
832351547022658688 -96640 -97658 -91136 -187303
832351547040872192 -96663 -97712 -91271 -187316
832351547059085696 -96673 -97671 -91301 -187336
832351547077299200 -96651 -97723 -91332 -187298
832351547095512704 -96682 -97731 -91324 -187344
832351547113726208 -96704 -97752 -91381 -187324
832351547131939840 -96673 -97652 -91294 -187291
832351547150153344 -96753 -97673 -91271 -187308
832351547168366848 -96716 -97703 -91322 -187293
832351547186580352 -96740 -97730 -91336 -187247
832351547204793910 -96759 -97719 -91329 -187308
832351547223006080 -96711 -97689 -91324 -187257
832351547241218304 -96702 -97668 -91248 -187268
832351547259430528 -96687 -97660 -91300 -187329
832351547277642752 -96734 -97659 -91362 -187288
832351547295854976 -96698 -97657 -91350 -187318
832351547314067328 -96680 -97649 -91327 -187273
832351547332279552 -96656 -97632 -91316 -187278
832351547350491776 -96659 -97640 -91266 -187237
832351547368704000 -96630 -97598 -91259 -187248
832351547386916224 -96681 -97660 -91304 -187226
832351547405128448 -96653 -97676 -91282 -187252
832351547423340672 -96668 -97618 -91330 -187203
832351547441552896 -96675 -97642 -91323 -187236
832351547459765248 -96649 -97678 -91294 -187251
832351547477977472 -96648 -97673 -91314 -187265
832351547496189696 -96693 -97712 -91321 -187306
832351547514401920 -96639 -97699 -91299 -187274
832351547532614144 -96694 -97695 -91299 -187273
832351547550826368 -96634 -97647 -91260 -187234
832351547569038592 -96666 -97653 -91265 -187275
832351547587250816 -96605 -97610 -91289 -187278
832351547605463040 -96660 -97630 -91298 -187182
832351547623675392 -96702 -97668 -91297 -187290
832351547641887616 -96693 -97731 -91323 -187284
832351547660099840 -96698 -97670 -91255 -187285
832351547678312064 -96701 -97662 -91289 -187292
832351547696524288 -96633 -97658 -91279 -187267
832351547714736512 -96633 -97661 -91293 -187292
832351547732948736 -96672 -97622 -91287 -187268
832351547751160960 -96651 -97694 -91329 -187269
832351547769373312 -96708 -97662 -91299 -187255
832351547787585536 -96736 -97656 -91342 -187296
832351547805797760 -96657 -97652 -91309 -187259
832351547824009984 -96680 -97640 -91296 -187221
832351547842222208 -96701 -97692 -91258 -187267
832351547860434432 -96587 -97658 -91250 -187210
832351547878646656 -96641 -97694 -91289 -187263
832351547896858880 -96722 -97698 -91348 -187283
832351547915071232 -96704 -97691 -91325 -187312
832351547933283456 -96709 -97657 -91272 -187292
832351547951495680 -96734 -97646 -91271 -187253
832351547969707904 -96655 -97653 -91277 -187225
832351547987920128 -96702 -97648 -91315 -187260
832351548006132352 -96730 -97679 -91330 -187255
832351548024344576 -96640 -97676 -91307 -187236
832351548042556800 -96761 -97694 -91510 -187273
832351548060769024 -96737 -97690 -91556 -187292
832351548078981376 -96731 -97721 -91561 -187253
832351548097193632 -96777 -97663 -91591 -187285
832351548115406592 -96768 -97739 -91659 -187225
832351548133619584 -96768 -97746 -91632 -187282
832351548151832704 -96725 -97713 -91564 -187201
832351548170045696 -96732 -97725 -91617 -187250
832351548188258816 -96649 -97671 -91565 -187219
832351548206471808 -96740 -97775 -91638 -187260
832351548224684928 -96812 -97719 -91647 -187305
832351548242897920 -96782 -97678 -91580 -187253
832351548261111040 -96799 -97709 -91649 -187276
832351548279324032 -96755 -97692 -91611 -187304
832351548297537152 -96783 -97719 -91602 -187286
832351548315750144 -96744 -97715 -91621 -187263
832351548333963264 -96707 -97726 -91600 -187220
832351548352176256 -96775 -97712 -91607 -187225
832351548370389248 -96756 -97678 -91532 -187263
832351548388602368 -96786 -97730 -91637 -187278
832351548406815360 -96737 -97672 -91591 -187273
832351548425028480 -96805 -97693 -91643 -187340
832351548443241472 -96800 -97748 -91583 -187307
832351548461454592 -96752 -97707 -91625 -187236
832351548479667584 -96761 -97685 -91671 -187274
832351548497880704 -96754 -97682 -91673 -187252
832351548516093696 -96666 -97678 -91588 -187212
832351548534306816 -96697 -97719 -91577 -187229
832351548552519808 -96784 -97686 -91608 -187264
832351548570732928 -96777 -97668 -91607 -187278
832351548588945920 -96756 -97685 -91587 -187292
832351548607158912 -96723 -97697 -91601 -187285
832351548625372032 -96764 -97748 -91672 -187337
832351548643585024 -96775 -97720 -91659 -187337
832351548661798144 -96788 -97777 -91677 -187284
832351548680011136 -96742 -97748 -91618 -187254
832351548698224256 -96766 -97729 -91638 -187290
832351548716437248 -96743 -97688 -91639 -187234
832351548734650368 -96717 -97742 -91667 -187261
832351548752863360 -96773 -97688 -91547 -187275
832351548771076480 -96794 -97720 -91632 -187254
832351548789289472 -96801 -97661 -91561 -187229
832351548807502592 -96839 -97710 -91640 -187310
832351548825715584 -96795 -97659 -91634 -187291
832351548843928576 -96805 -97729 -91657 -187256
832351548862141696 -96776 -97638 -91618 -187243
832351548880354688 -96775 -97697 -91634 -187269
832351548898567808 -96769 -97679 -91571 -187224
832351548916780800 -96798 -97693 -91611 -187252
832351548934993920 -96807 -97721 -91649 -187283
832351548953206912 -96819 -97750 -91595 -187276
832351548971420032 -96794 -97721 -91592 -187267
832351548989633024 -96805 -97677 -91623 -187266
832351549007846180 -96782 -97715 -91606 -187277
832351549026057984 -96806 -97676 -91578 -187304
832351549044269824 -96830 -97688 -91668 -187237
832351549062481664 -96851 -97708 -91819 -187282
832351549080693632 -96861 -97726 -91861 -187284
832351549098905472 -96893 -97765 -91899 -187249
832351549117117312 -96884 -97744 -91893 -187273
832351549135329152 -96876 -97751 -91897 -187242
832351549153541120 -96885 -97741 -91888 -187254
832351549171752960 -96823 -97741 -91896 -187208
832351549189964800 -96782 -97739 -91884 -187250
832351549208176640 -96822 -97699 -91906 -187255
832351549226388608 -96798 -97727 -91969 -187249
832351549244600448 -96813 -97698 -91913 -187200
832351549262812288 -96844 -97782 -91895 -187227
832351549281024128 -96888 -97697 -91954 -187214
832351549299236096 -96859 -97689 -91912 -187250
832351549317447936 -96866 -97750 -91889 -187241
832351549335659776 -96850 -97763 -91857 -187273
832351549353871616 -96823 -97762 -91856 -187234
832351549372083584 -96824 -97723 -91863 -187229
832351549390295424 -96820 -97774 -91897 -187295
832351549408507264 -96843 -97759 -91886 -187268
832351549426719104 -96799 -97763 -91859 -187232
832351549444931072 -96883 -97784 -91882 -187254
832351549463142912 -96843 -97741 -91920 -187285
832351549481354752 -96832 -97680 -91870 -187256
832351549499566592 -96835 -97707 -91797 -187246
832351549517778432 -96881 -97733 -91881 -187274
832351549535990400 -96861 -97777 -91902 -187232
832351549554202240 -96826 -97748 -91907 -187179
832351549572414080 -96837 -97751 -91874 -187212
832351549590625920 -96842 -97723 -91859 -187208
832351549608837888 -96803 -97687 -91850 -187226
832351549627049728 -96834 -97749 -91865 -187272
832351549645261568 -96910 -97800 -91912 -187318
832351549663473408 -96834 -97694 -91880 -187296
832351549681685376 -96832 -97739 -91856 -187283
832351549699897216 -96830 -97726 -91918 -187302
832351549718109056 -96843 -97739 -91901 -187263
832351549736320896 -96841 -97754 -91875 -187276
832351549754532864 -96855 -97784 -91944 -187232
832351549772744704 -96842 -97768 -91944 -187270
832351549790956544 -96837 -97766 -91939 -187264
832351549809168384 -96832 -97828 -91906 -187259
832351549827380352 -96861 -97810 -91930 -187275
832351549845592192 -96850 -97698 -91911 -187250
832351549863804032 -96866 -97741 -91924 -187261
832351549882015976 -96838 -97783 -91893 -187233
832351549900228608 -96864 -97782 -91878 -187232
832351549918441216 -96833 -97751 -91850 -187302
832351549936653696 -96830 -97673 -91872 -187233
832351549954866304 -96760 -97672 -91857 -187288
832351549973078784 -96822 -97691 -91881 -187232
832351549991291392 -96829 -97730 -91855 -187219
832351550009504000 -96859 -97738 -91865 -187196
832351550027716480 -96838 -97743 -91893 -187181
832351550045929088 -96795 -97694 -91825 -187243
832351550064141568 -96839 -97733 -91952 -187208
832351550082354176 -96896 -97755 -92061 -187215
832351550100566656 -96969 -97747 -92121 -187249
832351550118779264 -96950 -97775 -92079 -187254
832351550136991872 -96886 -97831 -92104 -187284
832351550155204352 -96920 -97805 -92119 -187277
832351550173416960 -96915 -97817 -92164 -187274
832351550191629440 -96912 -97793 -92132 -187268
832351550209842048 -96889 -97812 -92152 -187299
832351550228054656 -96914 -97757 -92146 -187290
832351550246267136 -96858 -97724 -92076 -187268
832351550264479744 -96895 -97761 -92095 -187301
832351550282692224 -96933 -97790 -92100 -187305
832351550300904832 -96840 -97761 -92060 -187235
832351550319117440 -96880 -97813 -92082 -187261
832351550337329920 -96922 -97816 -92090 -187273
832351550355542528 -96903 -97788 -92084 -187278
832351550373755008 -96923 -97805 -92104 -187266
832351550391967616 -96896 -97836 -92096 -187283
832351550410180224 -96870 -97816 -92087 -187254
832351550428392704 -96914 -97843 -92136 -187284
832351550446605312 -96870 -97807 -92153 -187286
832351550464817792 -96884 -97792 -92126 -187272
832351550483030400 -96880 -97777 -92089 -187250
832351550501242880 -96904 -97788 -92157 -187283
832351550519455488 -96919 -97792 -92133 -187306
832351550537668096 -96918 -97761 -92108 -187246
832351550555880576 -96889 -97739 -92102 -187224
832351550574093184 -96866 -97778 -92112 -187249
832351550592305664 -96942 -97810 -92150 -187255
832351550610518272 -96870 -97745 -92065 -187266
832351550628730880 -96915 -97776 -92106 -187266
832351550646943360 -96898 -97752 -92109 -187319
832351550665155968 -96906 -97762 -92095 -187295
832351550683368448 -97001 -97817 -92178 -187309
832351550701581056 -96933 -97805 -92218 -187269
832351550719793664 -96885 -97790 -92106 -187295
832351550738006144 -96949 -97808 -92183 -187261
832351550756218752 -96950 -97798 -92124 -187301
832351550774431232 -96885 -97823 -92147 -187291
832351550792643840 -96924 -97814 -92146 -187337
832351550810856448 -96915 -97775 -92133 -187256
832351550829068866 -96909 -97780 -92143 -187242
832351550847282432 -96900 -97742 -92143 -187304
832351550865495936 -96902 -97774 -92108 -187272
832351550883709568 -96906 -97731 -92097 -187261
832351550901923072 -96846 -97744 -92046 -187223
832351550920136576 -96878 -97767 -92051 -187260
832351550938350208 -96905 -97818 -92097 -187210
832351550956563712 -96926 -97784 -92102 -187244
832351550974777216 -96902 -97782 -92148 -187281
832351550992990848 -96864 -97779 -92121 -187240
832351551011204352 -96928 -97853 -92128 -187231
832351551029417984 -96950 -97819 -92100 -187296
832351551047631488 -96898 -97689 -92061 -187188
832351551065844992 -96928 -97760 -92018 -187255
832351551084058624 -96910 -97792 -92174 -187251
832351551102272128 -96942 -97791 -92215 -187239
832351551120485632 -97013 -97739 -92239 -187292
832351551138699264 -97009 -97822 -92330 -187274
832351551156912768 -96973 -97817 -92279 -187252
832351551175126272 -97010 -97811 -92329 -187301
832351551193339904 -97015 -97917 -92386 -187255
832351551211553408 -96976 -97849 -92330 -187235
832351551229766912 -96977 -97831 -92245 -187301
832351551247980544 -96986 -97826 -92317 -187261
832351551266194048 -97004 -97772 -92296 -187271
832351551284407552 -96984 -97799 -92331 -187252
832351551302621184 -96964 -97809 -92319 -187265
832351551320834688 -96932 -97764 -92309 -187249
832351551339048320 -96953 -97760 -92265 -187238
832351551357261824 -96970 -97871 -92290 -187273
832351551375475328 -96962 -97851 -92305 -187249
832351551393688960 -96975 -97824 -92307 -187223
832351551411902464 -96969 -97833 -92370 -187301
832351551430115968 -96988 -97801 -92306 -187286
832351551448329600 -97018 -97797 -92289 -187270
832351551466543104 -96961 -97875 -92348 -187249
832351551484756608 -96955 -97791 -92320 -187269
832351551502970240 -96981 -97823 -92330 -187333
832351551521183744 -96957 -97757 -92283 -187256
832351551539397248 -97026 -97758 -92341 -187256
832351551557610880 -96953 -97810 -92267 -187294
832351551575824384 -96943 -97799 -92300 -187292
832351551594038016 -96970 -97808 -92328 -187309
832351551612251520 -96924 -97827 -92304 -187230
832351551630465024 -96939 -97816 -92288 -187239
832351551648678584 -96972 -97806 -92283 -187234
832351551666890496 -96949 -97785 -92372 -187261
832351551685102464 -96901 -97793 -92309 -187244
832351551703314432 -96919 -97807 -92325 -187199
832351551721526400 -96895 -97802 -92313 -187257
832351551739738368 -96851 -97795 -92279 -187238
832351551757950336 -96903 -97805 -92316 -187264
832351551776162304 -96981 -97860 -92342 -187198
832351551794374272 -96883 -97856 -92323 -187274
832351551812586240 -96900 -97786 -92255 -187264
832351551830798208 -96915 -97824 -92329 -187300
832351551849010176 -96953 -97827 -92290 -187248
832351551867222144 -96937 -97863 -92381 -187275
832351551885434112 -96954 -97805 -92348 -187240
832351551903646080 -96982 -97817 -92305 -187303
832351551921858048 -97008 -97815 -92339 -187281
832351551940070016 -96987 -97795 -92349 -187259
832351551958281984 -96974 -97799 -92299 -187227
832351551976493952 -97040 -97820 -92297 -187309
832351551994705920 -97026 -97826 -92315 -187308
832351552012917888 -96964 -97750 -92252 -187300
832351552031129856 -96991 -97795 -92251 -187286
832351552049341824 -96962 -97833 -92304 -187258
832351552067553792 -96948 -97790 -92283 -187267
832351552085765760 -96994 -97910 -92385 -187239
832351552103977728 -97009 -97854 -92481 -187295
832351552122189696 -96998 -97788 -92494 -187232
832351552140401664 -97000 -97743 -92472 -187244
832351552158613632 -96984 -97773 -92471 -187197
832351552176825600 -97024 -97813 -92416 -187230
832351552195037568 -97000 -97819 -92468 -187323
832351552213249536 -97044 -97820 -92544 -187286
832351552231461504 -97051 -97828 -92503 -187256
832351552249673472 -96958 -97748 -92452 -187232
832351552267885440 -96988 -97842 -92500 -187253
832351552286097408 -97039 -97857 -92524 -187264
832351552304309376 -97047 -97808 -92488 -187350
832351552322521344 -97079 -97843 -92510 -187322
832351552340733312 -97057 -97789 -92460 -187289
832351552358945280 -97097 -97869 -92487 -187318
832351552377157248 -97023 -97783 -92450 -187329
832351552395369216 -97077 -97848 -92516 -187340
832351552413581184 -97064 -97902 -92482 -187288
832351552431793152 -97025 -97905 -92501 -187308
832351552450005120 -96973 -97801 -92439 -187246
832351552468217088 -96964 -97830 -92483 -187269
832351552486429056 -97039 -97823 -92464 -187249
832351552504641024 -97023 -97831 -92510 -187254
832351552522852992 -97032 -97884 -92545 -187274
832351552541064960 -97067 -97873 -92509 -187298
832351552559276928 -96948 -97857 -92437 -187248
832351552577488896 -96990 -97892 -92456 -187240
832351552595700954 -97020 -97796 -92419 -187256
832351552613912576 -97066 -97848 -92445 -187294
832351552632124160 -97044 -97811 -92496 -187315
832351552650335872 -97054 -97824 -92507 -187317
832351552668547456 -96987 -97842 -92443 -187310
832351552686759040 -96987 -97790 -92496 -187272
832351552704970624 -97006 -97825 -92512 -187247
832351552723182336 -97018 -97828 -92508 -187257
832351552741393920 -96979 -97814 -92524 -187248
832351552759605504 -96975 -97814 -92469 -187265
832351552777817088 -96999 -97757 -92474 -187203
832351552796028800 -96992 -97777 -92442 -187199
832351552814240384 -97047 -97876 -92492 -187287
832351552832451968 -97012 -97849 -92488 -187247
832351552850663552 -97032 -97806 -92478 -187264
832351552868875264 -97026 -97832 -92452 -187301
832351552887086848 -97048 -97841 -92465 -187333
832351552905298432 -97047 -97817 -92490 -187295
832351552923510016 -97044 -97883 -92502 -187289
832351552941721728 -96993 -97807 -92399 -187270
832351552959933312 -97027 -97810 -92456 -187283
832351552978144896 -96939 -97767 -92437 -187257
832351552996356480 -96988 -97818 -92488 -187295
832351553014568192 -96980 -97871 -92461 -187251
832351553032779776 -96957 -97826 -92484 -187283
832351553050991360 -97024 -97868 -92545 -187261
832351553069202944 -97050 -97816 -92504 -187289
832351553087414656 -97032 -97893 -92520 -187290
832351553105626240 -97013 -97877 -92591 -187303
832351553123837824 -97042 -97858 -92655 -187278
832351553142049408 -97095 -97844 -92697 -187341
832351553160261120 -97093 -97903 -92604 -187296
832351553178472704 -97048 -97883 -92596 -187240
832351553196684288 -97040 -97849 -92648 -187255
832351553214895872 -97018 -97841 -92664 -187190
832351553233107584 -97030 -97823 -92648 -187241
832351553251319168 -97061 -97826 -92664 -187284
832351553269530752 -97156 -97851 -92647 -187305
832351553287742336 -97105 -97875 -92627 -187321
832351553305954048 -97041 -97898 -92649 -187320
832351553324165632 -97061 -97892 -92640 -187344
832351553342377216 -97032 -97858 -92638 -187268
832351553360588800 -97058 -97841 -92624 -187320
832351553378800512 -97061 -97822 -92606 -187243
832351553397012096 -97069 -97904 -92659 -187282
832351553415223680 -97085 -97816 -92614 -187239
832351553433435264 -97114 -97860 -92707 -187311
832351553451646976 -97081 -97881 -92640 -187259
832351553469858560 -97127 -97870 -92666 -187305
832351553488070144 -97122 -97813 -92585 -187282
832351553506281728 -97122 -97896 -92649 -187303
832351553524493440 -97127 -97933 -92666 -187369
832351553542705008 -97096 -97833 -92623 -187268
832351553560917504 -97099 -97897 -92711 -187268
832351553579129984 -97094 -97811 -92629 -187217
832351553597342592 -97128 -97861 -92642 -187310
832351553615555072 -97052 -97839 -92632 -187303
832351553633767680 -97050 -97899 -92660 -187270
832351553651980160 -96999 -97897 -92641 -187285
832351553670192640 -97045 -97869 -92630 -187253
832351553688405248 -96977 -97856 -92575 -187203
832351553706617728 -97027 -97856 -92642 -187305
832351553724830336 -97030 -97870 -92610 -187277
832351553743042816 -97069 -97846 -92618 -187261
832351553761255296 -97041 -97881 -92596 -187256
832351553779467904 -97022 -97856 -92658 -187282
832351553797680384 -97101 -97859 -92674 -187294
832351553815892992 -97039 -97856 -92607 -187230
832351553834105472 -97071 -97859 -92654 -187246
832351553852318080 -97024 -97852 -92615 -187270
832351553870530560 -97011 -97864 -92587 -187269
832351553888743040 -97024 -97873 -92611 -187292
832351553906955648 -97028 -97843 -92616 -187300
832351553925168128 -97076 -97830 -92592 -187243
832351553943380736 -97058 -97801 -92631 -187251
832351553961593216 -97043 -97809 -92597 -187255
832351553979805696 -97084 -97852 -92631 -187284
832351553998018304 -97072 -97910 -92681 -187256
832351554016230784 -97042 -97894 -92613 -187259
832351554034443392 -97064 -97887 -92621 -187265
832351554052655872 -97116 -97886 -92695 -187270
832351554070868352 -97047 -97849 -92640 -187274
832351554089080960 -97116 -97886 -92766 -187252
832351554107293440 -97108 -97936 -92776 -187246
832351554125506048 -97175 -97927 -92773 -187325
832351554143718528 -97056 -97851 -92730 -187259
832351554161931008 -97073 -97892 -92749 -187251
832351554180143616 -97154 -97877 -92758 -187246
832351554198356096 -97100 -97869 -92790 -187276
832351554216568704 -97052 -97899 -92727 -187222
832351554234781184 -97069 -97888 -92739 -187233
832351554252993664 -97075 -97837 -92756 -187263
832351554271206272 -97105 -97837 -92701 -187212
832351554289418752 -97062 -97830 -92715 -187270
832351554307631360 -97077 -97909 -92744 -187268
832351554325843840 -97101 -97884 -92771 -187246
832351554344056448 -97124 -97874 -92790 -187258
832351554362268928 -97084 -97853 -92766 -187233
832351554380481408 -97097 -97858 -92797 -187274
832351554398694016 -97107 -97849 -92664 -187288
832351554416906496 -97092 -97870 -92676 -187227
832351554435119104 -97050 -97882 -92744 -187270
832351554453331614 -97054 -97888 -92699 -187291
832351554471543552 -97055 -97867 -92750 -187263
832351554489755520 -97061 -97857 -92714 -187250
832351554507967616 -97080 -97932 -92749 -187265
832351554526179584 -97060 -97928 -92774 -187248
832351554544391680 -97139 -97856 -92759 -187285
832351554562603648 -97134 -97883 -92786 -187316
832351554580815744 -97132 -97927 -92775 -187299
832351554599027712 -97089 -97900 -92783 -187263
832351554617239808 -97024 -97864 -92715 -187278
832351554635451776 -97048 -97871 -92769 -187284
832351554653663872 -97092 -97828 -92777 -187209
