TIMESTAMP PPG0 PPG1 PPG2 AMBIENT
832349320287689216 20940 -96430 -125652 -325786
832349320305870976 20931 -96403 -125661 -325828
832349320324052864 20905 -96365 -125605 -325815
832349320342234624 20966 -96412 -125557 -325780
832349320360416512 20906 -96402 -125702 -325826
832349320378598272 20891 -96427 -125679 -325813
832349320396780160 20853 -96468 -125643 -325784
832349320414961920 20895 -96423 -125675 -325797
832349320433143808 20910 -96395 -125658 -325743
832349320451325568 20987 -96325 -125604 -325716
832349320469507456 20946 -96400 -125694 -325797
832349320487689216 20946 -96413 -125630 -325756
832349320505870976 20894 -96359 -125688 -325797
832349320524052864 20966 -96418 -125687 -325791
832349320542234624 20904 -96470 -125661 -325812
832349320560416512 20898 -96423 -125673 -325782
832349320578598272 20816 -96491 -125761 -325866
832349320596780160 20867 -96443 -125666 -325806
832349320614961920 20889 -96471 -125655 -325875
832349320633143808 20871 -96447 -125666 -325830
832349320651325568 20938 -96468 -125594 -325823
832349320669507456 20897 -96475 -125629 -325849
832349320687689216 20914 -96410 -125664 -325784
832349320705870976 20921 -96447 -125689 -325800
832349320724052864 20927 -96433 -125660 -325799
832349320742234624 20919 -96412 -125678 -325825
832349320760416512 20925 -96414 -125647 -325772
832349320778598272 20943 -96423 -125697 -325815
832349320796780160 20918 -96449 -125672 -325838
832349320814961920 20923 -96454 -125673 -325813
832349320833143808 20891 -96426 -125695 -325820
832349320851325568 20903 -96432 -125632 -325789
832349320869507456 20888 -96500 -125708 -325834
832349320887689216 20859 -96461 -125690 -325874
832349320905870976 20855 -96474 -125713 -325829
832349320924052864 20887 -96494 -125674 -325817
832349320942234624 20840 -96545 -125710 -325821
832349320960416512 20948 -96453 -125634 -325824
832349320978598272 20875 -96480 -125729 -325865
832349320996780160 20901 -96434 -125694 -325764
832349321014961920 20926 -96418 -125692 -325800
832349321033143808 20840 -96417 -125713 -325763
832349321051325568 20888 -96430 -125669 -325747
832349321069507456 20820 -96415 -125721 -325782
832349321087689216 20829 -96444 -125725 -325815
832349321105870976 20831 -96494 -125746 -325839
832349321124052822 20873 -96496 -125694 -325816
832349321142265600 20940 -96520 -125671 -325801
832349321160478336 20946 -96435 -125603 -325813
832349321178691072 20932 -96536 -125715 -325808
832349321196903808 20888 -96494 -125721 -325837
832349321215116544 20861 -96468 -125632 -325805
832349321233329280 20901 -96489 -125670 -325832
832349321251542016 20893 -96452 -125664 -325814
832349321269754752 20896 -96450 -125635 -325746
832349321287967488 20859 -96462 -125669 -325852
832349321306180224 20852 -96477 -125609 -325839
832349321324392832 20864 -96426 -125672 -325819
832349321342605568 20828 -96414 -125643 -325854
832349321360818304 20819 -96458 -125726 -325824
832349321379031040 20824 -96415 -125687 -325820
832349321397243776 20859 -96448 -125659 -325840
832349321415456512 20873 -96410 -125652 -325822
832349321433669248 20870 -96493 -125733 -325868
832349321451881984 20912 -96451 -125647 -325757
832349321470094720 20851 -96430 -125702 -325849
832349321488307456 20873 -96440 -125697 -325821
832349321506520192 20874 -96503 -125721 -325806
832349321524732928 20884 -96453 -125715 -325838
832349321542945664 20830 -96493 -125734 -325864
832349321561158400 20870 -96495 -125697 -325823
832349321579371136 20871 -96458 -125704 -325814
832349321597583872 20885 -96450 -125705 -325845
832349321615796608 20847 -96450 -125748 -325784
832349321634009344 20913 -96443 -125706 -325788
832349321652221952 20891 -96426 -125661 -325761
832349321670434688 20822 -96477 -125727 -325818
832349321688647424 20964 -96408 -125649 -325819
832349321706860160 20948 -96457 -125657 -325811
832349321725072896 20914 -96491 -125663 -325792
832349321743285632 20970 -96434 -125694 -325779
832349321761498368 20868 -96463 -125673 -325831
832349321779711104 20830 -96513 -125790 -325849
832349321797923840 20902 -96400 -125677 -325821
832349321816136576 20942 -96413 -125694 -325814
832349321834349312 20893 -96447 -125656 -325802
832349321852562048 20938 -96455 -125656 -325831
832349321870774784 20910 -96503 -125675 -325835
832349321888987520 20878 -96465 -125724 -325853
832349321907200256 20916 -96339 -125707 -325801
832349321925412992 20897 -96417 -125668 -325768
832349321943625728 20910 -96345 -125638 -325763
832349321961838464 20907 -96438 -125681 -325773
832349321980051200 20923 -96427 -125621 -325828
832349321998263818 20905 -96395 -125675 -325806
832349322016476416 20915 -96412 -125655 -325791
832349322034689024 20872 -96450 -125657 -325781
832349322052901504 20844 -96476 -125726 -325811
832349322071114112 20910 -96463 -125723 -325790
832349322089326592 20895 -96455 -125671 -325814
832349322107539200 20880 -96459 -125679 -325816
832349322125751808 20906 -96415 -125666 -325799
832349322143964288 20899 -96453 -125700 -325830
832349322162176896 20871 -96428 -125626 -325832
832349322180389376 20896 -96429 -125675 -325814
832349322198601984 20902 -96477 -125711 -325848
832349322216814464 20965 -96366 -125621 -325799
832349322235027072 20948 -96421 -125661 -325812
832349322253239680 20965 -96396 -125592 -325750
832349322271452160 20915 -96416 -125653 -325796
832349322289664768 20954 -96394 -125630 -325804
832349322307877248 20862 -96432 -125610 -325779
832349322326089856 20910 -96464 -125588 -325753
832349322344302464 20974 -96406 -125638 -325775
832349322362514944 20890 -96479 -125745 -325786
832349322380727552 20944 -96395 -125651 -325829
832349322398940032 20903 -96386 -125643 -325808
832349322417152640 20875 -96445 -125652 -325786
832349322435365248 20882 -96419 -125727 -325819
832349322453577728 20831 -96503 -125733 -325817
832349322471790336 20840 -96443 -125707 -325802
832349322490002816 20813 -96468 -125732 -325849
832349322508215424 20905 -96430 -125607 -325772
832349322526428032 20898 -96437 -125672 -325863
832349322544640512 20931 -96414 -125657 -325783
832349322562853120 20908 -96443 -125668 -325780
832349322581065600 20899 -96413 -125652 -325757
832349322599278208 20857 -96441 -125676 -325834
832349322617490688 20971 -96383 -125611 -325772
832349322635703296 20929 -96443 -125703 -325836
832349322653915904 20850 -96419 -125641 -325863
832349322672128384 20893 -96460 -125675 -325848
832349322690340992 20898 -96467 -125662 -325789
832349322708553472 20859 -96432 -125636 -325817
832349322726766080 20894 -96447 -125663 -325735
832349322744978688 20912 -96426 -125664 -325814
832349322763191168 20893 -96480 -125675 -325818
832349322781403776 20965 -96430 -125643 -325781
832349322799616256 20952 -96409 -125611 -325762
832349322817828864 20945 -96397 -125576 -325757
832349322836041472 20918 -96443 -125677 -325756
832349322854253952 20925 -96465 -125708 -325807
832349322872466560 20975 -96413 -125640 -325769
832349322890679040 20954 -96392 -125682 -325753
832349322908891648 20919 -96417 -125691 -325786
832349322927104256 21014 -96398 -125629 -325740
832349322945316708 20922 -96414 -125619 -325746
832349322963530496 20895 -96421 -125617 -325794
832349322981744256 20905 -96452 -125635 -325816
832349322999958016 20894 -96427 -125664 -325801
832349323018171648 20888 -96435 -125621 -325824
832349323036385408 20844 -96415 -125648 -325774
832349323054599168 20830 -96489 -125686 -325792
832349323072812928 20898 -96500 -125676 -325843
832349323091026560 20986 -96420 -125666 -325801
832349323109240320 20948 -96444 -125639 -325814
832349323127454080 20955 -96417 -125590 -325791
832349323145667840 20984 -96443 -125630 -325780
832349323163881472 20913 -96482 -125651 -325798
832349323182095232 20853 -96486 -125691 -325784
832349323200308992 20902 -96390 -125693 -325804
832349323218522752 20914 -96457 -125673 -325796
832349323236736384 20888 -96434 -125691 -325850
832349323254950144 20930 -96423 -125629 -325834
832349323273163904 20943 -96516 -125709 -325851
832349323291377664 20937 -96479 -125708 -325811
832349323309591296 20859 -96492 -125696 -325854
832349323327805056 20890 -96508 -125683 -325838
832349323346018816 20961 -96434 -125704 -325818
832349323364232576 20912 -96426 -125661 -325778
832349323382446208 20858 -96470 -125739 -325807
832349323400659968 20851 -96413 -125753 -325809
832349323418873728 20889 -96410 -125692 -325754
832349323437087488 20910 -96499 -125665 -325823
832349323455301248 20973 -96424 -125588 -325843
832349323473514880 20870 -96387 -125662 -325816
832349323491728640 20916 -96481 -125662 -325787
832349323509942400 20886 -96403 -125691 -325757
832349323528156160 20911 -96447 -125716 -325815
832349323546369792 20918 -96382 -125711 -325778
832349323564583552 20925 -96393 -125658 -325768
832349323582797312 20870 -96460 -125658 -325774
832349323601011072 20895 -96489 -125695 -325825
832349323619224704 20950 -96437 -125683 -325762
832349323637438464 20919 -96425 -125619 -325799
832349323655652224 20891 -96501 -125704 -325812
832349323673865984 20903 -96453 -125682 -325811
832349323692079616 20868 -96420 -125682 -325777
832349323710293376 20834 -96434 -125682 -325821
832349323728507136 20930 -96372 -125666 -325799
832349323746720896 20902 -96427 -125675 -325879
832349323764934528 20921 -96419 -125687 -325780
832349323783148288 20913 -96440 -125657 -325794
832349323801362048 20946 -96416 -125658 -325806
832349323819575808 20874 -96449 -125736 -325836
832349323837789440 20933 -96393 -125664 -325803
832349323856003200 20891 -96382 -125674 -325784
832349323874216960 20893 -96430 -125702 -325812
832349323892430626 20911 -96429 -125733 -325835
832349323910644352 20981 -96391 -125635 -325782
832349323928858112 20959 -96398 -125723 -325796
832349323947071744 20940 -96380 -125699 -325800
832349323965285504 21013 -96393 -125674 -325750
832349323983499136 20931 -96447 -125653 -325792
832349324001712896 20911 -96386 -125673 -325796
832349324019926528 20922 -96363 -125655 -325707
832349324038140288 20938 -96432 -125610 -325763
832349324056353920 20893 -96430 -125666 -325807
832349324074567680 20930 -96423 -125675 -325791
832349324092781312 20880 -96476 -125671 -325853
832349324110995072 20901 -96442 -125630 -325834
832349324129208704 20960 -96480 -125632 -325775
832349324147422464 20966 -96391 -125639 -325768
832349324165636096 20907 -96400 -125644 -325802
832349324183849856 20882 -96469 -125691 -325858
832349324202063488 20908 -96402 -125646 -325813
832349324220277248 20920 -96463 -125644 -325834
832349324238490880 20862 -96420 -125621 -325804
832349324256704640 20854 -96399 -125665 -325853
832349324274918272 20906 -96387 -125623 -325737
832349324293132032 20945 -96365 -125605 -325763
832349324311345664 20955 -96338 -125629 -325751
832349324329559424 20983 -96329 -125600 -325755
832349324347773056 20942 -96416 -125618 -325797
832349324365986816 20913 -96394 -125635 -325782
832349324384200448 20930 -96414 -125621 -325770
832349324402414208 -123999 -175669 -185786 -325905
832349324420627840 -187037 -210050 -211766 -325852
832349324438841600 -214536 -224969 -223040 -325860
832349324457055232 -226425 -231414 -227927 -325812
832349324475268992 -231673 -234276 -230045 -325858
832349324493482640 -233931 -235472 -230996 -325817
832349324511696640 -234922 -235973 -231353 -325828
832349324529910656 -235245 -236201 -231462 -325798
832349324548124672 -235552 -236366 -231613 -325832
832349324566338688 -235650 -236354 -231607 -325858
832349324584552576 -235707 -236395 -231699 -325856
832349324602766592 -235699 -236428 -231711 -325805
832349324620980608 -235699 -236431 -231616 -325873
832349324639194624 -235716 -236404 -231730 -325857
832349324657408640 -235698 -236359 -231688 -325818
832349324675622656 -235645 -236404 -231667 -325809
832349324693836672 -235750 -236451 -231655 -325819
832349324712050560 -235719 -236383 -231679 -325778
832349324730264576 -235750 -236422 -231700 -325858
832349324748478592 -235702 -236397 -231690 -325786
832349324766692608 -235706 -236400 -231672 -325818
832349324784906624 -235734 -236423 -231655 -325839
832349324803120640 -235785 -236427 -231672 -325862
832349324821334528 -235749 -236424 -231672 -325873
832349324839548544 -235725 -236404 -231681 -325887
832349324857762560 -235707 -236455 -231783 -325853
832349324875976576 -235723 -236486 -231734 -325834
832349324894190592 -235735 -236473 -231691 -325815
832349324912404608 -235712 -236465 -231678 -325806
832349324930618624 -235735 -236516 -231735 -325897
832349324948832512 -235711 -236450 -231674 -325948
832349324967046528 -235685 -236450 -231678 -325891
832349324985260544 -235715 -236483 -231724 -325814
832349325003474560 -235752 -236452 -231743 -325871
832349325021688576 -235699 -236427 -231654 -325806
832349325039902592 -235747 -236446 -231694 -325847
832349325058116608 -235723 -236498 -231681 -325905
832349325076330496 -235733 -236441 -231666 -325837
832349325094544512 -235684 -236375 -231641 -325786
832349325112758528 -235647 -236403 -231629 -325753
832349325130972544 -235659 -236467 -231636 -325796
832349325149186560 -235665 -236510 -231675 -325841
832349325167400576 -235727 -236495 -231692 -325863
832349325185614464 -235712 -236425 -231645 -325821
832349325203828480 -235759 -236443 -231697 -325821
832349325222042496 -235732 -236410 -231731 -325829
832349325240256512 -235705 -236416 -231684 -325791
832349325258470528 -235668 -236418 -231662 -325819
832349325276684544 -235733 -236500 -231737 -325871
832349325294898560 -235750 -236464 -231738 -325863
832349325313112448 -235750 -236431 -231683 -325855
832349325331326464 -235745 -236457 -231715 -325865
832349325349540480 -235692 -236445 -231714 -325849
832349325367754496 -235742 -236422 -231736 -325868
832349325385968512 -235749 -236508 -231783 -325874
832349325404182488 -235697 -236423 -231685 -325845
832349325422396032 -235717 -236473 -231662 -325847
832349325440609536 -235736 -236369 -231714 -325832
832349325458822912 -235680 -236451 -231713 -325815
832349325477036416 -235748 -236509 -231772 -325883
832349325495249920 -235700 -236410 -231733 -325809
832349325513463296 -235727 -236453 -231694 -325833
832349325531676800 -235762 -236426 -231701 -325866
832349325549890304 -235698 -236417 -231706 -325882
832349325568103680 -235749 -236439 -231730 -325848
832349325586317184 -235716 -236417 -231717 -325809
832349325604530688 -235712 -236476 -231743 -325862
832349325622744064 -235761 -236476 -231754 -325829
832349325640957568 -235682 -236452 -231697 -325856
832349325659171072 -235739 -236439 -231654 -325864
832349325677384448 -235696 -236449 -231738 -325858
832349325695597952 -235699 -236448 -231709 -325835
832349325713811456 -235681 -236441 -231684 -325834
832349325732024832 -235714 -236396 -231723 -325830
832349325750238336 -235722 -236504 -231713 -325809
832349325768451840 -235740 -236475 -231684 -325831
832349325786665216 -235696 -236440 -231690 -325865
832349325804878720 -235713 -236410 -231694 -325852
832349325823092096 -235704 -236410 -231747 -325833
832349325841305600 -235714 -236497 -231748 -325862
832349325859519104 -235697 -236476 -231696 -325831
832349325877732480 -235759 -236519 -231736 -325834
832349325895945984 -235780 -236476 -231702 -325902
832349325914159488 -235713 -236439 -231712 -325822
832349325932372864 -235727 -236438 -231731 -325830
832349325950586368 -235724 -236452 -231713 -325866
832349325968799872 -235695 -236485 -231707 -325891
832349325987013248 -235732 -236448 -231732 -325834
832349326005226752 -235727 -236504 -231752 -325856
832349326023440256 -235705 -236457 -231720 -325821
832349326041653632 -235729 -236461 -231747 -325872
832349326059867136 -235716 -236446 -231723 -325818
832349326078080640 -235679 -236429 -231689 -325833
832349326096294016 -235717 -236411 -231698 -325869
832349326114507520 -235696 -236416 -231679 -325857
832349326132721024 -235699 -236445 -231717 -325854
832349326150934400 -235723 -236439 -231712 -325870
832349326169147904 -235651 -236423 -231660 -325838
832349326187361408 -235710 -236480 -231716 -325807
832349326205574784 -235697 -236409 -231728 -325798
832349326223788288 -235755 -236438 -231736 -325865
832349326242001792 -235717 -236415 -231732 -325840
832349326260215168 -235715 -236422 -231714 -325902
832349326278428580 -235668 -236417 -231674 -325843
832349326296643200 -235670 -236436 -231602 -325812
832349326314857856 -235676 -236391 -231692 -325816
832349326333072512 -235673 -236473 -231686 -325863
832349326351287168 -235696 -236448 -231708 -325859
832349326369501824 -235676 -236436 -231682 -325881
832349326387716480 -235641 -236426 -231649 -325831
832349326405931264 -235260 -236277 -230503 -325874
832349326424145920 -160367 -195227 -197836 -325749
832349326442360576 -71760 -147137 -163086 -325733
832349326460575232 -22481 -120193 -143195 -325812
832349326478789888 1139 -107255 -133573 -325786
832349326497004544 11941 -101359 -129279 -325855
832349326515219200 16860 -98680 -127286 -325860
832349326533433856 19066 -97479 -126411 -325874
832349326551648512 20021 -96923 -126040 -325857
832349326569863168 20453 -96686 -125791 -325911
832349326588077952 20670 -96578 -125779 -325865
832349326606292608 20717 -96534 -125745 -325843
832349326624507264 20757 -96513 -125743 -325868
832349326642721920 20785 -96500 -125717 -325849
832349326660936576 20844 -96468 -125662 -325854
832349326679151232 20847 -96469 -125748 -325816
832349326697365888 20806 -96454 -125732 -325850
832349326715580618 20864 -96465 -125672 -325830
832349326733794560 20840 -96472 -125725 -325866
832349326752008448 20887 -96455 -125687 -325814
832349326770222336 20854 -96461 -125686 -325852
832349326788436224 20872 -96476 -125705 -325808
832349326806650240 20876 -96470 -125696 -325842
832349326824864128 20862 -96477 -125705 -325855
832349326843078016 20895 -96486 -125703 -325833
832349326861291904 20896 -96489 -125717 -325809
832349326879505792 20854 -96428 -125725 -325825
832349326897719680 20892 -96418 -125682 -325781
832349326915933568 20861 -96505 -125751 -325792
832349326934147456 20854 -96479 -125708 -325777
832349326952361472 20948 -96424 -125720 -325790
832349326970575360 20890 -96470 -125749 -325845
832349326988789248 20834 -96408 -125697 -325839
832349327007003136 20893 -96444 -125717 -325873
832349327025217024 20857 -96425 -125716 -325862
832349327043430912 20831 -96512 -125732 -325889
832349327061644800 20857 -96466 -125714 -325866
832349327079858816 20887 -96452 -125693 -325816
832349327098072704 20877 -96539 -125720 -325832
832349327116286592 20888 -96418 -125654 -325857
832349327134500480 20852 -96502 -125675 -325858
832349327152714368 20842 -96528 -125686 -325843
832349327170928256 20833 -96509 -125712 -325847
832349327189142144 20837 -96444 -125697 -325858
832349327207356160 20913 -96450 -125671 -325806
832349327225570048 20892 -96448 -125738 -325778
832349327243783936 20891 -96446 -125670 -325809
832349327261997824 20859 -96435 -125666 -325792
832349327280211712 20906 -96428 -125714 -325860
832349327298425600 20922 -96437 -125687 -325814
832349327316639488 20887 -96443 -125660 -325796
832349327334853376 20850 -96465 -125681 -325767
832349327353067392 20880 -96464 -125745 -325818
832349327371281280 20839 -96480 -125714 -325830
832349327389495168 20885 -96443 -125740 -325846
832349327407709056 20833 -96508 -125707 -325824
832349327425922944 20834 -96454 -125678 -325807
832349327444136832 20835 -96457 -125652 -325764
832349327462350720 20840 -96438 -125700 -325796
832349327480564736 20817 -96465 -125705 -325764
832349327498778624 20783 -96464 -125686 -325778
832349327516992512 20793 -96485 -125710 -325863
832349327535206400 20838 -96484 -125766 -325864
832349327553420288 20914 -96425 -125742 -325816
832349327571634176 20830 -96486 -125729 -325860
832349327589848064 20894 -96447 -125680 -325865
832349327608062080 20841 -96443 -125729 -325866
832349327626275968 20843 -96533 -125696 -325857
832349327644489856 20847 -96496 -125748 -325841
832349327662703698 20855 -96440 -125670 -325814
832349327680917504 20856 -96420 -125719 -325792
832349327699131264 20834 -96450 -125687 -325824
832349327717345024 20841 -96519 -125737 -325849
832349327735558784 20851 -96496 -125737 -325820
832349327753772672 20851 -96465 -125682 -325830
832349327771986432 20824 -96467 -125708 -325812
832349327790200192 20868 -96461 -125686 -325828
832349327808413952 20893 -96516 -125702 -325855
832349327826627712 20829 -96482 -125680 -325855
832349327844841472 20809 -96459 -125697 -325798
832349327863055232 20834 -96442 -125695 -325819
832349327881269120 20846 -96463 -125706 -325790
832349327899482880 20793 -96480 -125740 -325799
832349327917696640 20861 -96469 -125688 -325808
832349327935910400 20848 -96457 -125647 -325792
832349327954124160 20857 -96440 -125648 -325822
832349327972337920 20842 -96452 -125703 -325772
832349327990551680 20818 -96466 -125686 -325797
832349328008765568 20879 -96408 -125670 -325772
832349328026979328 20831 -96457 -125758 -325803
832349328045193088 20890 -96431 -125680 -325775
832349328063406848 20847 -96434 -125651 -325809
832349328081620608 20828 -96530 -125703 -325848
832349328099834368 20828 -96467 -125722 -325791
832349328118048128 20881 -96436 -125719 -325825
832349328136262016 20910 -96401 -125715 -325811
832349328154475776 20851 -96494 -125704 -325817
832349328172689536 20829 -96453 -125700 -325838
832349328190903296 20869 -96520 -125731 -325780
832349328209117056 20884 -96525 -125657 -325818
832349328227330816 20902 -96444 -125696 -325826
832349328245544576 20887 -96488 -125649 -325880
832349328263758464 20896 -96453 -125659 -325843
832349328281972224 20931 -96436 -125682 -325820
832349328300185984 20889 -96467 -125693 -325851
832349328318399744 20905 -96442 -125672 -325773
832349328336613504 20913 -96441 -125691 -325795
832349328354827264 20855 -96581 -125700 -325817
832349328373041024 20828 -96450 -125704 -325823
832349328391254912 20825 -96512 -125679 -325818
832349328409468672 20855 -96464 -125695 -325837
832349328427682432 20822 -96477 -125677 -325779
832349328445896192 20777 -96537 -125770 -325798
832349328464109952 20779 -96556 -125765 -325830
832349328482323712 20805 -96499 -125678 -325825
832349328500537472 20810 -96512 -125736 -325816
832349328518751360 20807 -96484 -125770 -325840
832349328536965048 20830 -96476 -125711 -325805
832349328555177600 20805 -96499 -125726 -325832
832349328573390208 20738 -96480 -125712 -325812
832349328591602688 20707 -96525 -125828 -325839
832349328609815296 20761 -96523 -125763 -325818
832349328628027776 20805 -96522 -125758 -325835
832349328646240384 20811 -96518 -125733 -325819
832349328664452992 20776 -96448 -125733 -325772
832349328682665472 20786 -96562 -125770 -325847
832349328700878080 20773 -96542 -125782 -325856
832349328719090560 20772 -96585 -125754 -325806
832349328737303168 20799 -96528 -125704 -325797
832349328755515648 20779 -96521 -125696 -325809
832349328773728256 20766 -96519 -125734 -325812
832349328791940864 20777 -96557 -125697 -325795
832349328810153344 20722 -96523 -125682 -325780
832349328828365952 20806 -96511 -125703 -325826
832349328846578432 20733 -96534 -125719 -325855
832349328864791040 20795 -96527 -125730 -325803
832349328883003648 20720 -96496 -125733 -325835
832349328901216128 20725 -96538 -125726 -325830
832349328919428736 20776 -96570 -125749 -325863
832349328937641216 20748 -96503 -125745 -325852
832349328955853824 20742 -96517 -125726 -325817
832349328974066432 20732 -96552 -125750 -325817
832349328992278912 20769 -96563 -125738 -325836
832349329010491520 20771 -96499 -125738 -325854
832349329028704000 20844 -96547 -125711 -325823
832349329046916608 20722 -96536 -125753 -325853
832349329065129216 20821 -96501 -125756 -325865
832349329083341696 20801 -96512 -125716 -325846
832349329101554304 20758 -96537 -125732 -325821
832349329119766784 20779 -96525 -125740 -325843
832349329137979392 20790 -96532 -125739 -325874
832349329156191872 20802 -96532 -125680 -325782
832349329174404480 20845 -96492 -125680 -325792
832349329192617088 20824 -96531 -125738 -325884
832349329210829568 20788 -96517 -125728 -325814
832349329229042176 20784 -96551 -125720 -325842
832349329247254656 20827 -96574 -125693 -325806
832349329265467264 20730 -96513 -125712 -325778
832349329283679872 20756 -96549 -125734 -325761
832349329301892352 20802 -96487 -125681 -325706
832349329320104960 20754 -96555 -125739 -325791
832349329338317440 20853 -96430 -125674 -325718
832349329356530048 20793 -96466 -125773 -325774
832349329374742656 20818 -96538 -125736 -325797
832349329392955136 20767 -96495 -125732 -325802
832349329411167744 20799 -96496 -125742 -325840
832349329429380224 20783 -96551 -125733 -325824
832349329447592832 20719 -96502 -125780 -325792
832349329465805440 20656 -96607 -125794 -325872
832349329484017938 20658 -96605 -125739 -325818
832349329502231040 20639 -96551 -125774 -325794
832349329520444160 20646 -96576 -125819 -325829
832349329538657280 20713 -96560 -125773 -325756
832349329556870528 20651 -96603 -125727 -325814
832349329575083648 20682 -96555 -125754 -325714
832349329593296768 20609 -96514 -125738 -325735
832349329611509888 20617 -96580 -125716 -325771
832349329629723008 20639 -96530 -125732 -325790
832349329647936128 20619 -96581 -125784 -325839
832349329666149376 20614 -96589 -125775 -325784
832349329684362496 20667 -96574 -125744 -325808
832349329702575616 20642 -96561 -125791 -325760
832349329720788736 20646 -96571 -125776 -325777
832349329739001856 20611 -96600 -125758 -325746
832349329757214976 20616 -96576 -125767 -325815
832349329775428224 20642 -96549 -125731 -325799
832349329793641344 20645 -96594 -125749 -325817
832349329811854464 20671 -96591 -125727 -325816
832349329830067584 20653 -96535 -125759 -325807
832349329848280704 20660 -96538 -125732 -325811
832349329866493824 20700 -96616 -125785 -325779
832349329884707072 20641 -96647 -125829 -325832
832349329902920192 20587 -96662 -125773 -325833
832349329921133312 20569 -96640 -125817 -325877
832349329939346432 20594 -96581 -125773 -325835
832349329957559552 20612 -96651 -125853 -325868
832349329975772800 20595 -96610 -125881 -325798
832349329993985920 20635 -96583 -125773 -325822
832349330012199040 20616 -96570 -125767 -325837
832349330030412160 20635 -96561 -125778 -325859
832349330048625280 20625 -96590 -125831 -325847
832349330066838400 20639 -96605 -125829 -325811
832349330085051648 20668 -96596 -125835 -325834
832349330103264768 20609 -96586 -125765 -325806
832349330121477888 20591 -96605 -125759 -325865
832349330139691008 20640 -96593 -125772 -325795
832349330157904128 20615 -96640 -125828 -325811
832349330176117248 20616 -96732 -125810 -325869
832349330194330496 20662 -96619 -125749 -325774
832349330212543616 20613 -96559 -125804 -325859
832349330230756736 20641 -96548 -125760 -325788
832349330248969856 20599 -96574 -125758 -325822
832349330267182976 20620 -96615 -125804 -325822
832349330285396096 20628 -96588 -125762 -325815
832349330303609344 20645 -96577 -125759 -325803
832349330321822464 20619 -96600 -125736 -325835
832349330340035584 20596 -96567 -125795 -325807
832349330358248704 20679 -96596 -125782 -325815
832349330376461824 20652 -96562 -125781 -325860
832349330394675072 20630 -96584 -125746 -325846
832349330412888192 20590 -96625 -125827 -325851
832349330431101338 20696 -96591 -125762 -325838
832349330449314688 20620 -96630 -125776 -325758
832349330467528064 20513 -96697 -125822 -325826
832349330485741568 20437 -96714 -125871 -325778
832349330503954944 20445 -96710 -125867 -325833
832349330522168448 20428 -96744 -125898 -325763
832349330540381824 20424 -96673 -125817 -325745
832349330558595328 20395 -96715 -125805 -325801
832349330576808704 20407 -96762 -125881 -325815
832349330595022208 20356 -96719 -125845 -325833
832349330613235584 20357 -96727 -125843 -325785
832349330631449088 20424 -96754 -125863 -325765
832349330649662464 20448 -96751 -125883 -325800
832349330667875968 20326 -96765 -125886 -325857
832349330686089344 20383 -96715 -125943 -325867
832349330704302848 20410 -96767 -125867 -325843
832349330722516224 20309 -96766 -125929 -325836
832349330740729600 20352 -96686 -125877 -325853
832349330758943104 20387 -96718 -125862 -325890
832349330777156480 20328 -96745 -125903 -325859
832349330795369984 20395 -96791 -125900 -325829
832349330813583360 20410 -96778 -125852 -325834
832349330831796864 20401 -96762 -125880 -325856
832349330850010240 20349 -96803 -125835 -325852
832349330868223744 20339 -96781 -125910 -325871
832349330886437120 20364 -96731 -125815 -325833
832349330904650624 20370 -96755 -125828 -325816
832349330922864000 20381 -96699 -125817 -325811
832349330941077504 20358 -96722 -125873 -325791
832349330959290880 20408 -96739 -125882 -325783
832349330977504384 20486 -96705 -125834 -325791
832349330995717760 20420 -96726 -125845 -325789
832349331013931264 20409 -96698 -125843 -325767
832349331032144640 20404 -96782 -125896 -325823
832349331050358016 20407 -96731 -125841 -325789
832349331068571520 20399 -96772 -125890 -325851
832349331086784896 20416 -96771 -125833 -325836
832349331104998400 20418 -96781 -125850 -325852
832349331123211776 20397 -96756 -125857 -325842
832349331141425280 20415 -96738 -125880 -325814
832349331159638656 20404 -96794 -125910 -325821
832349331177852160 20449 -96727 -125858 -325771
832349331196065536 20411 -96702 -125887 -325748
832349331214279040 20425 -96758 -125897 -325855
832349331232492416 20395 -96708 -125849 -325850
832349331250705920 20395 -96728 -125913 -325845
832349331268919296 20464 -96732 -125866 -325775
832349331287132800 20407 -96828 -125939 -325838
832349331305346176 20460 -96747 -125924 -325773
832349331323559552 20393 -96743 -125947 -325822
832349331341773056 20404 -96669 -125867 -325831
832349331359986432 20400 -96778 -125849 -325786
832349331378200004 20461 -96704 -125881 -325809
832349331396412288 20358 -96693 -125900 -325816
832349331414624512 20468 -96677 -125831 -325798
832349331432836736 20426 -96793 -125885 -325804
832349331451048960 20394 -96750 -125871 -325809
832349331469261184 20231 -96870 -125948 -325826
832349331487473280 20151 -96974 -125965 -325796
832349331505685504 20059 -96995 -126078 -325885
832349331523897728 20096 -96972 -126030 -325792
832349331542109952 19995 -96955 -126019 -325836
832349331560322176 19977 -96959 -126065 -325852
832349331578534400 19994 -96943 -126041 -325772
832349331596746624 19966 -96921 -126022 -325845
832349331614958848 19961 -96943 -126022 -325825
832349331633170944 19961 -96930 -126031 -325791
832349331651383168 20003 -96930 -126016 -325852
832349331669595392 19963 -96900 -126004 -325805
832349331687807616 19998 -96901 -125962 -325781
832349331706019840 19975 -96954 -126009 -325841
832349331724232064 19991 -96986 -125979 -325859
832349331742444288 20037 -96983 -126002 -325788
832349331760656512 20078 -96909 -125961 -325764
832349331778868608 20038 -96910 -126055 -325783
832349331797080832 20061 -96911 -125981 -325779
832349331815293056 20029 -96914 -126024 -325780
832349331833505280 20033 -96887 -125983 -325848
832349331851717504 20043 -96980 -126040 -325803
832349331869929728 20046 -97006 -126027 -325816
832349331888141952 20123 -96957 -126001 -325765
832349331906354176 20015 -96943 -126028 -325837
832349331924566272 20048 -96892 -126014 -325814
832349331942778496 20017 -96983 -125999 -325807
832349331960990720 20051 -96939 -126023 -325848
832349331979202944 19999 -96889 -126056 -325863
832349331997415168 20022 -96903 -126031 -325798
832349332015627392 19956 -96962 -126095 -325786
832349332033839616 19977 -96938 -126058 -325864
832349332052051840 19997 -97008 -126061 -325843
832349332070263936 19976 -96955 -126030 -325838
832349332088476160 20015 -96950 -126070 -325855
832349332106688384 19994 -96964 -125981 -325808
832349332124900608 19991 -96967 -126024 -325910
832349332143112832 19997 -96900 -125987 -325814
832349332161325056 20007 -96938 -125984 -325838
832349332179537280 20041 -96896 -125994 -325835
832349332197749504 20032 -96962 -126023 -325807
832349332215961600 20021 -96925 -126027 -325734
832349332234173824 19976 -96943 -125983 -325777
832349332252386048 20038 -96970 -126013 -325781
832349332270598202 20062 -96902 -125988 -325734
832349332288811264 20025 -96942 -126037 -325829
832349332307024384 20010 -96939 -125977 -325750
832349332325237504 20041 -96931 -126060 -325871
832349332343450752 20056 -96931 -126077 -325815
832349332361663872 20057 -96941 -126061 -325857
832349332379876992 20076 -96925 -125986 -325823
832349332398090112 20089 -96956 -125989 -325756
832349332416303232 20065 -96932 -125975 -325796
832349332434516352 20018 -96869 -125951 -325828
832349332452729600 19846 -97015 -126135 -325798
832349332470942720 19679 -97110 -126159 -325820
832349332489155840 19475 -97249 -126238 -325813
832349332507368960 19393 -97255 -126206 -325801
832349332525582080 19386 -97303 -126238 -325720
832349332543795200 19332 -97319 -126282 -325775
832349332562008448 19353 -97323 -126304 -325817
832349332580221568 19258 -97379 -126254 -325799
832349332598434688 19271 -97370 -126328 -325880
832349332616647808 19287 -97339 -126300 -325832
832349332634860928 19361 -97355 -126235 -325811
832349332653074176 19361 -97317 -126204 -325870
832349332671287296 19284 -97386 -126336 -325824
832349332689500416 19290 -97330 -126341 -325790
832349332707713536 19351 -97327 -126253 -325804
832349332725926656 19357 -97300 -126255 -325803
832349332744139776 19309 -97325 -126306 -325832
832349332762353024 19307 -97322 -126272 -325830
832349332780566144 19314 -97358 -126296 -325805
832349332798779264 19292 -97333 -126333 -325798
832349332816992384 19275 -97416 -126342 -325835
832349332835205504 19355 -97361 -126333 -325830
832349332853418624 19327 -97320 -126312 -325807
832349332871631872 19349 -97327 -126295 -325806
832349332889844992 19357 -97374 -126297 -325802
832349332908058112 19352 -97287 -126255 -325787
832349332926271232 19306 -97337 -126292 -325812
832349332944484352 19289 -97316 -126257 -325826
832349332962697600 19307 -97357 -126290 -325797
832349332980910720 19320 -97353 -126235 -325795
832349332999123840 19305 -97393 -126292 -325816
832349333017337048 19308 -97449 -126290 -325791
832349333035550848 19328 -97346 -126245 -325819
832349333053764608 19300 -97359 -126272 -325852
832349333071978496 19283 -97371 -126262 -325801
832349333090192256 19265 -97370 -126297 -325867
832349333108406016 19307 -97353 -126321 -325792
832349333126619904 19301 -97365 -126321 -325795
832349333144833664 19295 -97410 -126333 -325832
832349333163047552 19324 -97324 -126350 -325794
832349333181261312 19305 -97341 -126372 -325835
832349333199475072 19321 -97319 -126342 -325809
832349333217688960 19383 -97307 -126287 -325746
832349333235902720 19338 -97413 -126306 -325805
832349333254116480 19321 -97400 -126331 -325798
832349333272330368 19304 -97415 -126291 -325821
832349333290544128 19288 -97361 -126296 -325781
832349333308757888 19321 -97329 -126311 -325836
832349333326971776 19289 -97362 -126328 -325797
832349333345185536 19316 -97355 -126294 -325801
832349333363399296 19344 -97357 -126346 -325801
832349333381613184 19332 -97396 -126243 -325803
832349333399826944 19333 -97336 -126267 -325806
832349333418040832 19360 -97318 -126245 -325775
832349333436254592 19316 -97319 -126240 -325819
832349333454468352 19114 -97476 -126388 -325812
832349333472682240 18781 -97662 -126516 -325820
832349333490896000 18515 -97819 -126624 -325817
832349333509109760 18292 -98014 -126744 -325868
832349333527323648 18142 -98011 -126805 -325828
832349333545537408 18075 -98067 -126752 -325829
832349333563751168 17966 -98154 -126821 -325841
832349333581965056 17971 -98121 -126859 -325797
832349333600178816 17907 -98184 -126901 -325822
832349333618392576 17909 -98211 -126867 -325817
832349333636606464 17860 -98192 -126924 -325870
832349333654820224 17927 -98155 -126839 -325837
832349333673034112 17876 -98159 -126890 -325796
832349333691247872 17944 -98136 -126858 -325794
832349333709461632 17898 -98138 -126871 -325819
832349333727675520 17854 -98149 -126877 -325787
832349333745889280 17876 -98176 -126914 -325832
832349333764103040 17882 -98206 -126906 -325823
832349333782316928 17866 -98170 -126823 -325825
832349333800530688 17847 -98240 -126905 -325835
832349333818744448 17875 -98160 -126930 -325856
832349333836958336 17885 -98125 -126920 -325818
832349333855172114 17889 -98112 -126902 -325806
832349333873385984 17911 -98180 -126923 -325835
832349333891599872 17917 -98142 -126899 -325829
832349333909813632 17892 -98169 -126928 -325845
832349333928027520 17907 -98208 -126952 -325840
832349333946241408 17845 -98173 -126876 -325807
832349333964455296 17894 -98127 -126877 -325752
832349333982669056 17840 -98147 -126854 -325773
832349334000882944 17888 -98184 -126925 -325743
832349334019096832 17917 -98171 -126885 -325786
832349334037310592 17867 -98093 -126830 -325807
832349334055524480 17885 -98124 -126868 -325764
832349334073738368 17902 -98156 -126877 -325802
832349334091952256 17858 -98172 -126886 -325833
832349334110166016 17916 -98158 -126849 -325796
832349334128379904 17938 -98125 -126819 -325780
832349334146593792 17895 -98125 -126809 -325801
832349334164807680 17867 -98192 -126901 -325783
832349334183021440 17879 -98206 -126894 -325801
832349334201235328 17878 -98197 -126901 -325832
832349334219449216 17882 -98142 -126888 -325789
832349334237662976 17905 -98197 -126893 -325821
832349334255876864 17890 -98173 -126893 -325852
832349334274090752 17853 -98143 -126801 -325773
832349334292304640 17946 -98100 -126802 -325792
832349334310518400 17910 -98140 -126809 -325740
832349334328732288 17942 -98147 -126870 -325762
832349334346946176 17864 -98163 -126933 -325788
832349334365159936 17903 -98135 -126897 -325811
832349334383373824 17881 -98147 -126914 -325837
832349334401587712 17946 -98188 -126849 -325819
832349334419801600 17888 -98161 -126890 -325889
832349334438015360 17916 -98132 -126857 -325812
832349334456229248 17531 -98381 -126965 -325871
832349334474443136 17021 -98687 -127323 -325825
832349334492656896 16317 -99020 -127575 -325780
832349334510870784 15873 -99258 -127728 -325812
832349334529084672 15470 -99509 -127954 -325830
832349334547298560 15229 -99607 -128025 -325771
832349334565512320 14997 -99774 -128138 -325862
832349334583726208 14862 -99840 -128211 -325815
832349334601940096 14746 -99866 -128252 -325815
832349334620153856 14737 -99929 -128297 -325837
832349334638367754 14690 -99974 -128291 -325864
832349334656580224 14674 -99950 -128237 -325866
832349334674792704 14697 -99953 -128289 -325858
832349334693005184 14707 -99975 -128302 -325863
832349334711217792 14680 -100017 -128315 -325857
832349334729430272 14696 -99997 -128222 -325802
832349334747642752 14675 -100047 -128337 -325813
832349334765855232 14660 -100010 -128345 -325832
832349334784067712 14644 -99964 -128356 -325795
832349334802280320 14645 -99964 -128315 -325791
832349334820492800 14643 -99969 -128322 -325805
832349334838705280 14651 -99967 -128293 -325824
832349334856917760 14666 -100045 -128336 -325842
832349334875130240 14623 -100015 -128350 -325849
832349334893342848 14683 -99998 -128232 -325830
832349334911555328 14634 -100001 -128281 -325798
832349334929767808 14666 -99951 -128280 -325784
832349334947980288 14659 -99945 -128278 -325756
832349334966192896 14619 -100023 -128300 -325823
832349334984405376 14574 -100025 -128331 -325803
832349335002617856 14690 -100037 -128290 -325750
832349335020830336 14673 -100009 -128292 -325785
832349335039042816 14595 -100013 -128345 -325885
832349335057255424 14667 -99924 -128313 -325870
832349335075467904 14667 -99982 -128362 -325855
832349335093680384 14640 -99956 -128301 -325880
832349335111892864 14609 -99976 -128310 -325866
832349335130105344 14664 -99901 -128242 -325785
832349335148317952 14648 -99981 -128307 -325817
832349335166530432 14670 -99989 -128305 -325814
832349335184742912 14663 -100019 -128335 -325824
832349335202955392 14626 -100010 -128282 -325770
832349335221167872 14667 -99996 -128262 -325734
832349335239380480 14657 -99887 -128247 -325765
832349335257592960 14643 -99962 -128250 -325764
832349335275805440 14675 -99940 -128273 -325791
832349335294017920 14682 -99953 -128307 -325778
832349335312230400 14664 -99945 -128281 -325768
832349335330443008 14640 -99936 -128254 -325803
832349335348655488 14728 -99906 -128250 -325752
832349335366867968 14671 -100019 -128307 -325798
832349335385080448 14630 -100041 -128284 -325797
832349335403293056 14614 -100001 -128283 -325840
832349335421505536 14686 -99957 -128274 -325820
832349335439718016 14688 -99995 -128292 -325771
832349335457930496 14155 -100274 -128522 -325800
832349335476142976 12815 -100980 -129087 -325800
832349335494355584 11343 -101852 -129744 -325831
832349335512568068 9989 -102594 -130344 -325809
832349335530780416 8950 -103217 -130824 -325842
832349335548992768 8161 -103575 -131157 -325788
832349335567205248 7486 -103962 -131430 -325819
832349335585417600 7015 -104257 -131733 -325790
832349335603630080 6688 -104480 -131885 -325835
832349335621842432 6494 -104616 -131977 -325815
832349335640054912 6316 -104721 -132032 -325754
832349335658267264 6214 -104772 -132038 -325786
832349335676479744 6116 -104778 -132070 -325811
832349335694692096 6106 -104768 -132089 -325817
832349335712904576 6068 -104809 -132135 -325784
832349335731116928 5981 -104831 -132138 -325830
832349335749329408 5996 -104832 -132194 -325838
832349335767541760 5935 -104914 -132176 -325812
832349335785754240 5958 -104862 -132119 -325792
832349335803966592 5928 -104893 -132142 -325843
832349335822179072 5905 -104944 -132166 -325857
832349335840391424 5818 -105024 -132247 -325836
832349335858603904 5856 -104949 -132226 -325814
832349335876816256 5865 -104946 -132217 -325859
832349335895028736 5877 -104913 -132235 -325874
832349335913241088 5922 -104827 -132173 -325838
832349335931453568 5897 -104867 -132175 -325820
832349335949665920 5853 -104891 -132206 -325763
832349335967878400 5898 -104923 -132200 -325785
832349335986090752 5833 -104907 -132171 -325825
832349336004303232 5845 -104926 -132273 -325829
832349336022515584 5901 -104865 -132221 -325758
832349336040728064 5921 -104865 -132175 -325795
832349336058940416 5887 -104929 -132254 -325817
832349336077152896 5928 -104878 -132274 -325796
832349336095365248 5939 -104906 -132225 -325772
832349336113577728 5962 -104896 -132193 -325831
832349336131790080 5935 -104882 -132167 -325778
832349336150002560 5928 -104860 -132186 -325840
832349336168214912 5878 -104911 -132150 -325800
832349336186427392 5860 -104934 -132149 -325853
832349336204639744 5794 -104949 -132231 -325887
832349336222852224 5924 -104925 -132216 -325869
832349336241064576 5905 -104910 -132212 -325831
832349336259277056 5861 -104909 -132189 -325756
832349336277489530 5891 -104906 -132138 -325820
832349336295702656 5853 -104952 -132170 -325837
832349336313915776 5909 -104880 -132182 -325819
832349336332128896 5997 -104850 -132155 -325821
832349336350342144 5905 -104903 -132191 -325825
832349336368555264 5857 -104874 -132173 -325839
832349336386768384 5829 -104963 -132221 -325838
832349336404981504 5865 -104976 -132205 -325808
832349336423194624 5848 -104915 -132171 -325796
832349336441407744 5889 -104909 -132209 -325787
832349336459620992 5122 -105309 -132516 -325851
832349336477834112 1951 -107002 -133884 -325832
832349336496047232 -1737 -109047 -135477 -325824
832349336514260352 -5197 -110984 -136987 -325839
832349336532473472 -7960 -112534 -138135 -325773
832349336550686592 -10252 -113815 -139121 -325803
832349336568899840 -11899 -114660 -139785 -325820
832349336587112960 -12977 -115277 -140305 -325750
832349336605326080 -13895 -115808 -140793 -325815
832349336623539200 -14496 -116121 -141012 -325813
832349336641752320 -15057 -116432 -141191 -325780
832349336659965568 -15313 -116581 -141274 -325797
832349336678178688 -15514 -116704 -141393 -325820
832349336696391808 -15683 -116801 -141487 -325774
832349336714604928 -15720 -116855 -141516 -325771
832349336732818048 -15837 -116853 -141521 -325807
832349336751031168 -15855 -116854 -141474 -325814
832349336769244416 -15917 -116877 -141534 -325830
832349336787457536 -15941 -116943 -141559 -325839
832349336805670664 -15924 -116941 -141551 -325832
832349336823883776 -15945 -117021 -141540 -325828
832349336842096896 -16025 -117028 -141585 -325854
832349336860310016 -16049 -116993 -141592 -325743
832349336878523264 -16068 -117052 -141613 -325839
832349336896736384 -16087 -117017 -141631 -325818
832349336914949504 -16048 -117001 -141585 -325775
832349336933162624 -16105 -117030 -141664 -325803
832349336951375744 -16013 -116966 -141600 -325789
832349336969588864 -16001 -116992 -141623 -325762
832349336987802112 -16021 -116921 -141590 -325818
832349337006015232 -16042 -116932 -141589 -325809
832349337024228352 -16064 -116941 -141606 -325831
832349337042441472 -16134 -116953 -141635 -325841
832349337060654592 -16131 -117037 -141619 -325857
832349337078867712 -16113 -117036 -141668 -325823
832349337097080960 -16086 -116962 -141604 -325807
832349337115294080 -16072 -117045 -141623 -325831
832349337133507200 -16089 -116992 -141623 -325863
832349337151720320 -16059 -117001 -141593 -325854
832349337169933440 -16033 -116984 -141539 -325786
832349337188146560 -16052 -117013 -141580 -325763
832349337206359808 -16113 -117041 -141598 -325766
832349337224572928 -16097 -117031 -141611 -325829
832349337242786048 -16150 -117036 -141622 -325814
832349337260999168 -16155 -117001 -141667 -325865
832349337279212288 -16092 -116916 -141599 -325829
832349337297425536 -16029 -116918 -141648 -325781
832349337315638656 -16003 -116959 -141613 -325821
832349337333851776 -16011 -116945 -141572 -325760
832349337352064896 -16111 -116997 -141612 -325738
832349337370278016 -16080 -116995 -141601 -325831
832349337388491136 -16048 -116967 -141630 -325796
832349337406704384 -16071 -117012 -141634 -325797
832349337424917504 -16153 -117010 -141632 -325852
832349337443130624 -16142 -117072 -141686 -325801
832349337461343744 -16085 -116973 -141655 -325794
832349337479556864 -22167 -120245 -144113 -325778
832349337497769984 -29711 -124311 -147108 -325765
832349337515983232 -36313 -127923 -149634 -325821
832349337534196352 -41257 -130574 -151530 -325822
832349337552409502 -44768 -132472 -152743 -325821
832349337570621440 -47108 -133711 -153660 -325821
832349337588833408 -48642 -134534 -154128 -325809
832349337607045504 -49492 -134965 -154447 -325767
832349337625257472 -50112 -135264 -154720 -325798
832349337643469568 -50511 -135511 -154894 -325755
832349337661681536 -50827 -135647 -154971 -325817
832349337679893632 -51063 -135812 -155024 -325803
832349337698105600 -51166 -135878 -155064 -325777
832349337716317696 -51292 -135871 -155114 -325783
832349337734529664 -51286 -135930 -155153 -325800
832349337752741760 -51331 -135937 -155149 -325824
832349337770953728 -51303 -135915 -155078 -325816
832349337789165696 -51317 -135899 -155091 -325789
832349337807377792 -51366 -135882 -155102 -325796
832349337825589760 -51354 -135895 -155172 -325813
832349337843801856 -51389 -135975 -155157 -325819
832349337862013824 -51434 -136017 -155179 -325800
832349337880225920 -51413 -135984 -155164 -325777
832349337898437888 -51430 -136059 -155176 -325835
832349337916649984 -51407 -136012 -155222 -325816
832349337934861952 -51430 -136023 -155243 -325809
832349337953073920 -51359 -135920 -155170 -325774
832349337971286016 -51413 -135972 -155181 -325756
832349337989497984 -51545 -135991 -155221 -325805
832349338007710080 -51502 -135952 -155275 -325797
832349338025922048 -51444 -135943 -155201 -325786
832349338044134144 -51423 -135982 -155193 -325808
832349338062346112 -51475 -135968 -155222 -325779
832349338080558208 -51517 -136025 -155231 -325820
832349338098770176 -51540 -136047 -155223 -325785
832349338116982272 -51528 -136072 -155186 -325792
832349338135194240 -51510 -136039 -155224 -325765
832349338153406208 -51451 -136005 -155139 -325808
832349338171618304 -51477 -136004 -155226 -325805
832349338189830272 -51472 -136028 -155201 -325780
832349338208042368 -51449 -135989 -155210 -325788
832349338226254336 -51432 -135974 -155172 -325769
832349338244466432 -51536 -136066 -155195 -325763
832349338262678400 -51524 -136042 -155205 -325749
832349338280890496 -51592 -136088 -155316 -325801
832349338299102562 -51505 -136069 -155243 -325733
832349338317316992 -51517 -136043 -155262 -325747
832349338335531392 -51490 -136018 -155255 -325836
832349338353745920 -51466 -136014 -155226 -325817
832349338371960320 -51458 -135979 -155190 -325829
832349338390174720 -51473 -135998 -155222 -325851
832349338408389120 -51403 -135917 -155204 -325761
832349338426603648 -51410 -135983 -155235 -325785
832349338444818048 -51403 -135978 -155224 -325791
832349338463032448 -51067 -135866 -155119 -325814
832349338481246848 -60886 -141009 -158422 -325800
832349338499461376 -71316 -146485 -161784 -325794
832349338517675776 -79139 -150591 -164332 -325826
832349338535890176 -84184 -153183 -165859 -325786
832349338554104576 -87284 -154802 -166801 -325839
832349338572319104 -89001 -155672 -167292 -325790
832349338590533504 -89965 -156218 -167618 -325815
832349338608747904 -90492 -156406 -167690 -325816
832349338626962304 -90780 -156615 -167819 -325779
832349338645176832 -90897 -156663 -167822 -325730
832349338663391232 -90943 -156713 -167894 -325746
832349338681605632 -91172 -156845 -167985 -325816
832349338699820160 -91296 -156850 -167971 -325823
832349338718034560 -91398 -156990 -168043 -325835
832349338736248960 -91379 -156917 -168026 -325804
832349338754463360 -91400 -156943 -168017 -325851
832349338772677836 -91374 -156973 -168034 -325785
832349338790891392 -91367 -156915 -168004 -325801
832349338809104896 -91298 -156949 -168007 -325825
832349338827318272 -91224 -156859 -167988 -325797
832349338845531776 -91275 -156876 -167977 -325826
832349338863745152 -91380 -156939 -168052 -325864
832349338881958656 -91429 -156975 -168032 -325812
832349338900172032 -91501 -157009 -168024 -325830
832349338918385536 -91538 -157054 -168087 -325802
832349338936598912 -91464 -156996 -168034 -325816
832349338954812416 -91493 -157018 -168087 -325833
832349338973025920 -91482 -157031 -168038 -325854
832349338991239296 -91402 -156962 -168046 -325808
832349339009452800 -91426 -156919 -168027 -325815
832349339027666176 -91364 -156935 -168044 -325833
832349339045879680 -91349 -156947 -168031 -325840
832349339064093056 -91362 -156993 -168030 -325830
832349339082306560 -91404 -156961 -168006 -325825
832349339100519936 -91561 -157074 -168082 -325842
832349339118733440 -91598 -157072 -168077 -325820
832349339136946944 -91581 -157095 -168057 -325834
832349339155160320 -91496 -157014 -168082 -325749
832349339173373824 -91442 -157001 -168025 -325823
832349339191587200 -91448 -157014 -168029 -325846
832349339209800704 -91455 -156972 -168008 -325797
832349339228014080 -91418 -156955 -168023 -325796
832349339246227584 -91424 -156924 -167994 -325813
832349339264441088 -91478 -156953 -168042 -325816
832349339282654464 -91545 -157035 -168083 -325786
832349339300867968 -91631 -157057 -168082 -325769
832349339319081344 -91602 -157064 -168072 -325768
832349339337294848 -91562 -157085 -168038 -325764
832349339355508224 -91560 -157060 -168032 -325841
832349339373721728 -91432 -156978 -167970 -325829
832349339391935104 -91424 -156899 -168004 -325770
832349339410148608 -91420 -156988 -167996 -325777
832349339428362112 -91441 -156991 -167989 -325853
832349339446575488 -91461 -157021 -168043 -325803
832349339464788992 -91370 -156943 -167996 -325829
832349339483002368 -101492 -162106 -170649 -325789
832349339501215736 -111994 -167666 -173455 -325794
832349339519429376 -119213 -171385 -175273 -325875
832349339537643008 -123557 -173673 -176323 -325887
832349339555856768 -125896 -174837 -176891 -325823
832349339574070400 -126986 -175414 -177205 -325825
832349339592284032 -127507 -175689 -177331 -325800
832349339610497792 -127814 -175774 -177418 -325775
832349339628711424 -127939 -175897 -177422 -325849
832349339646925184 -127913 -175920 -177458 -325841
832349339665138816 -127922 -175913 -177468 -325834
832349339683352448 -127979 -175911 -177449 -325840
832349339701566208 -128113 -175925 -177467 -325824
832349339719779840 -128131 -175995 -177483 -325825
832349339737993472 -128206 -176058 -177514 -325836
832349339756207232 -128270 -176068 -177493 -325808
832349339774420864 -128206 -176007 -177445 -325833
832349339792634496 -128199 -176033 -177505 -325792
832349339810848256 -128140 -175961 -177453 -325765
832349339829061888 -128166 -176024 -177476 -325773
832349339847275648 -128105 -175969 -177483 -325756
832349339865489280 -128116 -175935 -177455 -325801
832349339883702912 -128172 -175947 -177557 -325813
832349339901916672 -128174 -175977 -177548 -325881
832349339920130304 -128275 -176057 -177567 -325807
832349339938343936 -128310 -176045 -177498 -325779
832349339956557696 -128315 -176083 -177568 -325800
832349339974771328 -128290 -176079 -177508 -325768
832349339992984960 -128229 -176125 -177562 -325826
832349340011198720 -128202 -176045 -177514 -325796
832349340029412352 -128193 -176020 -177528 -325840
832349340047626112 -128223 -176032 -177473 -325824
832349340065839744 -128166 -175959 -177497 -325855
832349340084053376 -128195 -176063 -177478 -325877
832349340102267136 -128313 -176051 -177534 -325832
832349340120480768 -128280 -176067 -177528 -325811
832349340138694400 -128388 -176089 -177611 -325834
832349340156908160 -128366 -176092 -177527 -325822
832349340175121844 -128235 -176054 -177568 -325856
832349340193335936 -128238 -176002 -177538 -325838
832349340211550080 -128292 -176011 -177500 -325806
832349340229764352 -128298 -175996 -177444 -325799
832349340247978496 -128160 -176009 -177449 -325842
832349340266192768 -128101 -175987 -177460 -325824
832349340284406912 -128128 -175938 -177467 -325824
832349340302621184 -128242 -175975 -177511 -325815
832349340320835328 -128293 -176071 -177508 -325833
832349340339049472 -128393 -176106 -177568 -325814
832349340357263744 -128325 -176079 -177506 -325822
832349340375477888 -128316 -176050 -177517 -325822
832349340393692160 -128238 -176032 -177479 -325779
832349340411906304 -128273 -176070 -177539 -325841
832349340430120576 -128288 -176020 -177429 -325805
832349340448334720 -128232 -175974 -177530 -325804
832349340466548864 -128218 -176040 -177543 -325796
832349340484763136 -128096 -175925 -177425 -325784
832349340502977280 -138381 -181209 -179681 -325840
832349340521191552 -147513 -186033 -181664 -325849
832349340539405696 -153026 -188945 -182837 -325845
832349340557619968 -155956 -190493 -183385 -325832
832349340575834112 -157418 -191269 -183740 -325846
832349340594048256 -157957 -191619 -183832 -325829
832349340612262528 -158313 -191753 -183889 -325831
832349340630476672 -158438 -191795 -183923 -325833
832349340648690944 -158465 -191888 -183930 -325871
832349340666905088 -158506 -191863 -184009 -325850
832349340685119360 -158465 -191773 -183938 -325802
832349340703333504 -158484 -191774 -183915 -325864
832349340721547648 -158530 -191814 -183931 -325834
832349340739761920 -158645 -191838 -183950 -325821
832349340757976064 -158716 -191881 -183939 -325811
832349340776190336 -158686 -191880 -183974 -325819
832349340794404480 -158634 -191904 -183951 -325805
832349340812618752 -158608 -191866 -183932 -325824
832349340830832896 -158590 -191810 -183960 -325833
832349340849047040 -158561 -191811 -183939 -325849
832349340867261312 -158545 -191761 -183965 -325799
832349340885475596 -158477 -191764 -183947 -325832
832349340903688704 -158544 -191779 -183943 -325847
832349340921901824 -158579 -191857 -183863 -325824
832349340940114944 -158697 -191954 -183904 -325829
832349340958328192 -158812 -191954 -183949 -325787
832349340976541312 -158772 -191964 -183944 -325853
832349340994754432 -158718 -191884 -183981 -325842
832349341012967552 -158610 -191873 -183916 -325799
832349341031180672 -158592 -191931 -183941 -325791
832349341049393792 -158613 -191868 -183966 -325824
832349341067607040 -158569 -191816 -183937 -325785
832349341085820160 -158486 -191880 -183921 -325768
832349341104033280 -158589 -191817 -183928 -325775
832349341122246400 -158731 -191849 -183911 -325807
832349341140459520 -158823 -191944 -183920 -325804
832349341158672640 -158788 -191983 -183958 -325814
832349341176885888 -158707 -191975 -183974 -325859
832349341195099008 -158640 -191888 -183955 -325832
832349341213312128 -158594 -191883 -183941 -325812
832349341231525248 -158714 -191908 -183983 -325847
832349341249738368 -158616 -191854 -183907 -325819
832349341267951616 -158552 -191769 -183929 -325813
832349341286164736 -158603 -191799 -183925 -325847
832349341304377856 -158659 -191824 -183985 -325832
832349341322590976 -158750 -191906 -184010 -325837
832349341340804096 -158829 -191974 -184035 -325835
832349341359017216 -158779 -191939 -183976 -325773
832349341377230464 -158783 -191925 -184001 -325821
832349341395443584 -158738 -191888 -183995 -325828
832349341413656704 -158657 -191841 -183962 -325870
832349341431869824 -158673 -191904 -183976 -325771
832349341450082944 -158629 -191906 -183980 -325826
832349341468296064 -158626 -191817 -183962 -325835
832349341486509312 -158466 -191742 -183940 -325809
832349341504722432 -166419 -195954 -185450 -325830
832349341522935552 -173639 -199792 -186866 -325791
832349341541148672 -177736 -202069 -187691 -325811
832349341559361866 -179887 -203274 -188163 -325901
832349341577575296 -180839 -203822 -188341 -325840
832349341595788672 -181392 -204116 -188496 -325822
832349341614002048 -181464 -204162 -188480 -325799
832349341632215296 -181530 -204149 -188485 -325790
832349341650428672 -181502 -204183 -188471 -325819
832349341668642048 -181501 -204185 -188485 -325843
832349341686855424 -181525 -204252 -188589 -325846
832349341705068672 -181469 -204130 -188496 -325850
832349341723282048 -181484 -204140 -188507 -325812
832349341741495424 -181534 -204176 -188511 -325840
832349341759708800 -181623 -204247 -188507 -325847
832349341777922048 -181709 -204243 -188475 -325821
832349341796135424 -181678 -204331 -188598 -325831
832349341814348800 -181633 -204263 -188553 -325893
832349341832562176 -181550 -204202 -188504 -325873
832349341850775424 -181538 -204246 -188534 -325815
832349341868988800 -181539 -204243 -188515 -325839
832349341887202176 -181563 -204233 -188544 -325822
832349341905415552 -181504 -204127 -188480 -325738
832349341923628928 -181522 -204177 -188512 -325806
832349341941842176 -181607 -204208 -188518 -325849
832349341960055552 -181654 -204263 -188519 -325812
832349341978268928 -181675 -204258 -188528 -325834
832349341996482304 -181669 -204253 -188555 -325823
832349342014695552 -181676 -204217 -188514 -325868
832349342032908928 -181646 -204199 -188533 -325852
832349342051122304 -181567 -204197 -188501 -325857
832349342069335680 -181510 -204181 -188495 -325841
832349342087548928 -181470 -204185 -188530 -325804
832349342105762304 -181429 -204165 -188428 -325869
832349342123975680 -181519 -204179 -188489 -325822
832349342142189056 -181572 -204212 -188497 -325836
832349342160402304 -181622 -204212 -188504 -325813
832349342178615680 -181739 -204225 -188535 -325837
832349342196829056 -181662 -204246 -188583 -325843
832349342215042432 -181595 -204254 -188513 -325843
832349342233255680 -181531 -204199 -188517 -325814
832349342251469056 -181616 -204184 -188524 -325829
832349342269682432 -181633 -204152 -188484 -325750
832349342287895808 -181514 -204104 -188489 -325770
832349342306109184 -181490 -204170 -188487 -325805
832349342324322432 -181565 -204170 -188460 -325806
832349342342535808 -181611 -204226 -188547 -325832
832349342360749184 -181644 -204289 -188550 -325821
832349342378962426 -181709 -204345 -188519 -325798
832349342397176448 -181642 -204280 -188501 -325833
832349342415390464 -181603 -204203 -188510 -325806
832349342433604480 -181584 -204176 -188585 -325794
832349342451818496 -181591 -204215 -188484 -325771
832349342470032640 -181625 -204185 -188480 -325849
832349342488246656 -181492 -204152 -188517 -325863
832349342506460672 -187125 -207273 -189713 -325777
832349342524674688 -192363 -210249 -191026 -325807
832349342542888704 -195126 -211877 -191695 -325740
832349342561102720 -196634 -212734 -192081 -325831
832349342579316864 -197212 -213073 -192198 -325819
832349342597530880 -197595 -213292 -192293 -325838
832349342615744896 -197780 -213389 -192328 -325775
832349342633958912 -197808 -213451 -192385 -325798
832349342652172928 -197819 -213387 -192316 -325797
832349342670386944 -197804 -213387 -192277 -325872
832349342688601088 -197770 -213382 -192321 -325853
832349342706815104 -197761 -213345 -192300 -325905
832349342725029120 -197670 -213301 -192295 -325865
832349342743243136 -197689 -213331 -192356 -325891
832349342761457152 -197754 -213313 -192346 -325889
832349342779671168 -197774 -213369 -192321 -325843
832349342797885312 -197821 -213387 -192404 -325830
832349342816099328 -197867 -213428 -192400 -325789
832349342834313344 -197865 -213414 -192409 -325812
832349342852527360 -197840 -213403 -192386 -325796
832349342870741376 -197783 -213403 -192395 -325867
832349342888955392 -197729 -213365 -192327 -325763
832349342907169502 -197802 -213398 -192341 -325832
832349342925383424 -197697 -213306 -192323 -325846
832349342943597312 -197720 -213347 -192290 -325799
832349342961811072 -197681 -213345 -192288 -325816
832349342980024960 -197810 -213379 -192339 -325834
832349342998238848 -197896 -213403 -192394 -325819
832349343016452608 -197907 -213403 -192357 -325802
832349343034666496 -197889 -213440 -192390 -325819
832349343052880384 -197793 -213410 -192368 -325803
832349343071094144 -197757 -213348 -192374 -325843
832349343089308032 -197696 -213350 -192342 -325829
832349343107521920 -197791 -213397 -192391 -325852
832349343125735680 -197742 -213372 -192359 -325842
832349343143949568 -197707 -213321 -192323 -325807
832349343162163328 -197757 -213383 -192345 -325816
832349343180377216 -197788 -213427 -192332 -325785
832349343198591104 -197865 -213490 -192392 -325826
832349343216804864 -197863 -213454 -192445 -325825
832349343235018752 -197831 -213376 -192391 -325811
832349343253232640 -197845 -213398 -192403 -325856
832349343271446400 -197794 -213357 -192395 -325841
832349343289660288 -197801 -213361 -192402 -325857
832349343307874176 -197823 -213370 -192402 -325855
832349343326087936 -197751 -213357 -192378 -325865
832349343344301824 -197747 -213338 -192368 -325856
832349343362515712 -197812 -213397 -192395 -325881
832349343380729472 -197866 -213428 -192395 -325875
832349343398943360 -197933 -213456 -192359 -325845
832349343417157248 -197884 -213393 -192319 -325857
832349343435371008 -197819 -213386 -192349 -325797
832349343453584896 -197791 -213353 -192317 -325797
832349343471798784 -197810 -213357 -192345 -325835
832349343490012544 -197849 -213450 -192339 -325849
832349343508226432 -201487 -215553 -193516 -325857
832349343526440320 -205241 -217861 -194882 -325812
832349343544654080 -207264 -219071 -195680 -325935
832349343562867968 -208070 -219537 -195875 -325838
832349343581081712 -208452 -219795 -196096 -325809
832349343599295616 -208675 -219930 -196175 -325830
832349343617509504 -208830 -220032 -196205 -325813
832349343635723392 -208902 -220050 -196242 -325768
832349343653937280 -208964 -220113 -196231 -325829
832349343672151296 -208930 -220060 -196206 -325824
832349343690365184 -208883 -220031 -196180 -325842
832349343708579072 -208869 -220080 -196229 -325869
832349343726792960 -208875 -220017 -196278 -325853
832349343745006848 -208836 -220031 -196249 -325811
832349343763220736 -208814 -219997 -196253 -325821
832349343781434624 -208756 -219967 -196229 -325816
832349343799648512 -208809 -220033 -196233 -325770
832349343817862528 -208880 -220078 -196215 -325796
832349343836076416 -208917 -220036 -196239 -325767
832349343854290304 -208981 -220120 -196267 -325832
832349343872504192 -208950 -220067 -196173 -325864
832349343890718080 -208921 -220107 -196258 -325877
832349343908931968 -208893 -220088 -196257 -325850
832349343927145856 -208884 -220067 -196261 -325850
832349343945359872 -208855 -220025 -196223 -325855
832349343963573760 -208811 -220004 -196221 -325821
832349343981787648 -208817 -219977 -196227 -325849
832349344000001536 -208827 -220014 -196230 -325854
832349344018215424 -208959 -220047 -196315 -325872
832349344036429312 -209041 -220146 -196348 -325858
832349344054643200 -208979 -220083 -196310 -325818
832349344072857216 -208938 -220104 -196336 -325898
832349344091071104 -208905 -220080 -196297 -325888
832349344109284992 -208911 -220088 -196294 -325800
832349344127498880 -208887 -220006 -196256 -325817
832349344145712768 -208912 -219996 -196257 -325831
832349344163926656 -208839 -220016 -196209 -325812
832349344182140544 -208909 -220046 -196282 -325818
832349344200354432 -208922 -220112 -196281 -325871
832349344218568448 -208970 -220080 -196278 -325826
832349344236782336 -209005 -220118 -196260 -325805
832349344254996224 -208973 -220076 -196222 -325797
832349344273210112 -208901 -220014 -196207 -325799
832349344291424000 -208875 -220037 -196212 -325801
832349344309637926 -208951 -220009 -196202 -325821
832349344327851136 -208857 -220004 -196215 -325818
832349344346064384 -208790 -219977 -196128 -325794
832349344364277504 -208827 -219999 -196193 -325834
832349344382490752 -208854 -220041 -196205 -325832
832349344400704000 -208872 -220034 -196173 -325773
832349344418917248 -208965 -220083 -196243 -325811
832349344437130368 -208903 -220070 -196250 -325825
832349344455343616 -208883 -220055 -196200 -325809
832349344473556864 -208919 -220051 -196275 -325833
832349344491770112 -208818 -220016 -196243 -325787
832349344509983232 -208902 -220035 -196236 -325792
832349344528196480 -211794 -221819 -197711 -325812
832349344546409728 -214226 -223380 -199071 -325820
832349344564622976 -215389 -224159 -199782 -325856
832349344582836096 -215888 -224509 -200015 -325846
832349344601049344 -216162 -224674 -200164 -325838
832349344619262592 -216294 -224717 -200253 -325825
832349344637475840 -216397 -224757 -200327 -325822
832349344655688960 -216553 -224864 -200411 -325853
832349344673902208 -216411 -224824 -200329 -325815
832349344692115456 -216475 -224840 -200361 -325847
832349344710328704 -216487 -224808 -200331 -325829
832349344728541824 -216495 -224807 -200354 -325845
832349344746755072 -216426 -224805 -200322 -325819
832349344764968320 -216368 -224814 -200353 -325828
832349344783181568 -216394 -224768 -200361 -325824
832349344801394688 -216449 -224814 -200369 -325806
832349344819607936 -216455 -224797 -200324 -325719
832349344837821184 -216454 -224863 -200361 -325824
832349344856034432 -216551 -224904 -200412 -325780
832349344874247552 -216457 -224809 -200411 -325822
832349344892460800 -216417 -224822 -200368 -325847
832349344910674048 -216415 -224781 -200305 -325831
832349344928887296 -216426 -224861 -200335 -325801
832349344947100416 -216403 -224794 -200313 -325809
832349344965313664 -216306 -224825 -200268 -325788
832349344983526912 -216319 -224740 -200359 -325821
832349345001740032 -216363 -224827 -200370 -325894
832349345019953280 -216433 -224872 -200395 -325814
832349345038166528 -216463 -224853 -200402 -325818
832349345056379776 -216484 -224863 -200377 -325825
832349345074592958 -216441 -224896 -200390 -325825
832349345092807552 -216395 -224848 -200354 -325794
832349345111022208 -216404 -224809 -200372 -325799
832349345129236864 -216386 -224772 -200343 -325849
832349345147451520 -216415 -224791 -200299 -325851
832349345165666176 -216418 -224855 -200324 -325863
832349345183880832 -216331 -224808 -200293 -325846
832349345202095616 -216399 -224765 -200278 -325872
832349345220310272 -216420 -224794 -200365 -325802
832349345238524928 -216485 -224856 -200415 -325828
832349345256739584 -216458 -224884 -200389 -325847
832349345274954240 -216455 -224895 -200445 -325892
832349345293168896 -216487 -224843 -200374 -325880
832349345311383552 -216412 -224871 -200318 -325835
832349345329598208 -216396 -224826 -200272 -325881
832349345347812864 -216403 -224824 -200327 -325886
832349345366027520 -216368 -224754 -200232 -325832
832349345384242304 -216394 -224830 -200305 -325855
832349345402456960 -216438 -224840 -200347 -325838
832349345420671616 -216358 -224818 -200360 -325836
832349345438886272 -216517 -224929 -200413 -325841
832349345457100928 -216442 -224884 -200420 -325817
832349345475315584 -216381 -224879 -200388 -325749
832349345493530240 -216403 -224842 -200319 -325853
832349345511744896 -216392 -224778 -200327 -325859
832349345529959552 -218176 -225978 -201712 -325794
832349345548174208 -219942 -227126 -203242 -325859
832349345566388992 -220801 -227671 -203930 -325766
832349345584603648 -221230 -227943 -204271 -325820
832349345602818304 -221327 -228030 -204350 -325842
832349345621032960 -221419 -228092 -204463 -325849
832349345639247616 -221455 -228158 -204517 -325792
832349345657462272 -221529 -228158 -204520 -325857
832349345675676928 -221603 -228204 -204577 -325837
832349345693891584 -221585 -228207 -204610 -325845
832349345712106240 -221557 -228187 -204556 -325902
832349345730320896 -221540 -228170 -204508 -325869
832349345748535552 -221499 -228182 -204519 -325780
832349345766750354 -221517 -228277 -204494 -325846
832349345784964992 -221536 -228132 -204529 -325871
832349345803179648 -221476 -228175 -204482 -325794
832349345821394304 -221540 -228148 -204502 -325828
832349345839608960 -221514 -228150 -204502 -325788
832349345857823616 -221585 -228170 -204586 -325815
832349345876038272 -221580 -228187 -204602 -325786
832349345894253056 -221545 -228145 -204551 -325800
832349345912467712 -221486 -228170 -204541 -325788
832349345930682368 -221514 -228185 -204526 -325766
832349345948897024 -221506 -228160 -204467 -325811
832349345967111680 -221548 -228164 -204531 -325773
832349345985326336 -221529 -228185 -204544 -325798
832349346003540992 -221497 -228098 -204503 -325787
832349346021755648 -221476 -228117 -204555 -325796
832349346039970304 -221549 -228176 -204604 -325857
832349346058184960 -221568 -228188 -204561 -325790
832349346076399744 -221605 -228177 -204601 -325850
832349346094614400 -221539 -228225 -204586 -325857
832349346112829056 -221573 -228162 -204463 -325833
832349346131043712 -221518 -228193 -204555 -325863
832349346149258368 -221516 -228160 -204537 -325826
832349346167473024 -221528 -228157 -204535 -325807
832349346185687680 -221476 -228133 -204493 -325819
832349346203902336 -221459 -228091 -204460 -325799
832349346222116992 -221492 -228159 -204466 -325833
832349346240331648 -221528 -228248 -204588 -325860
832349346258546304 -221591 -228244 -204590 -325865
832349346276761088 -221623 -228210 -204613 -325870
832349346294975744 -221569 -228215 -204583 -325829
832349346313190400 -221477 -228101 -204518 -325814
832349346331405056 -221503 -228180 -204561 -325840
832349346349619712 -221506 -228143 -204520 -325772
832349346367834368 -221571 -228149 -204550 -325805
832349346386049024 -221585 -228125 -204521 -325872
832349346404263680 -221528 -228163 -204521 -325874
832349346422478336 -221569 -228159 -204582 -325872
832349346440692992 -221556 -228163 -204576 -325877
832349346458907776 -221617 -228224 -204641 -325877
832349346477122432 -221569 -228207 -204618 -325834
832349346495337088 -221538 -228185 -204506 -325849
832349346513551744 -221515 -228119 -204507 -325857
832349346531766400 -222567 -228831 -205686 -325850
832349346549981056 -223962 -229756 -207237 -325834
832349346568195712 -224551 -230147 -207947 -325815
832349346586410368 -224854 -230273 -208353 -325849
832349346604625024 -224957 -230405 -208405 -325869
832349346622839762 -224963 -230342 -208390 -325811
832349346641053824 -224968 -230351 -208450 -325832
832349346659267840 -225041 -230365 -208498 -325856
832349346677481856 -225037 -230438 -208585 -325799
832349346695695872 -225150 -230515 -208587 -325823
832349346713910016 -225099 -230526 -208647 -325830
832349346732124032 -225030 -230434 -208558 -325813
832349346750338048 -225041 -230466 -208586 -325768
832349346768552064 -225017 -230461 -208560 -325836
832349346786766080 -225035 -230491 -208598 -325829
832349346804980096 -225070 -230454 -208536 -325845
832349346823194112 -225006 -230424 -208495 -325829
832349346841408128 -225018 -230512 -208501 -325850
832349346859622272 -225015 -230456 -208531 -325860
832349346877836288 -225085 -230503 -208588 -325853
832349346896050304 -225040 -230463 -208540 -325830
832349346914264320 -225166 -230463 -208577 -325887
832349346932478336 -225087 -230480 -208572 -325868
832349346950692352 -225065 -230438 -208550 -325859
832349346968906368 -225081 -230423 -208507 -325867
832349346987120384 -224993 -230449 -208501 -325828
832349347005334528 -225042 -230433 -208555 -325888
832349347023548544 -225004 -230403 -208524 -325865
832349347041762560 -225020 -230424 -208503 -325811
832349347059976576 -225070 -230440 -208544 -325829
832349347078190592 -225085 -230473 -208595 -325826
832349347096404608 -225105 -230554 -208610 -325838
832349347114618624 -225113 -230529 -208635 -325830
832349347132832640 -225109 -230441 -208603 -325833
832349347151046784 -225075 -230436 -208582 -325862
832349347169260800 -225036 -230417 -208587 -325835
832349347187474816 -225050 -230469 -208597 -325872
832349347205688832 -225070 -230486 -208613 -325859
832349347223902848 -225026 -230488 -208546 -325882
832349347242116864 -225023 -230495 -208558 -325797
832349347260330880 -225040 -230493 -208597 -325883
832349347278545024 -225132 -230501 -208650 -325887
832349347296759040 -225135 -230500 -208632 -325896
832349347314973056 -225075 -230504 -208621 -325917
832349347333187072 -225053 -230500 -208580 -325802
832349347351401088 -225041 -230447 -208566 -325811
832349347369615104 -225014 -230433 -208475 -325820
832349347387829120 -225046 -230473 -208534 -325893
832349347406043136 -224993 -230425 -208509 -325874
832349347424257280 -225079 -230406 -208484 -325863
832349347442471296 -225076 -230388 -208562 -325807
832349347460685312 -225120 -230510 -208639 -325867
832349347478899328 -225144 -230530 -208655 -325882
832349347497113320 -225153 -230574 -208694 -325876
832349347515327360 -225092 -230488 -208611 -325882
832349347533541376 -225645 -230788 -209408 -325865
832349347551755520 -226746 -231522 -210938 -325863
832349347569969536 -227160 -231816 -211691 -325833
832349347588183552 -227384 -231974 -211938 -325836
832349347606397568 -227446 -232073 -212086 -325856
832349347624611712 -227485 -231978 -212150 -325847
832349347642825728 -227533 -232055 -212229 -325802
832349347661039744 -227501 -232057 -212197 -325825
832349347679253760 -227503 -232027 -212189 -325820
832349347697467904 -227511 -232056 -212218 -325837
832349347715681920 -227545 -232054 -212334 -325866
832349347733895936 -227512 -232062 -212311 -325862
832349347752110080 -227595 -232134 -212304 -325857
832349347770324096 -227561 -232110 -212236 -325797
832349347788538112 -227572 -232053 -212238 -325770
832349347806752128 -227538 -231973 -212235 -325838
832349347824966272 -227504 -232035 -212204 -325850
832349347843180288 -227567 -232013 -212219 -325899
832349347861394304 -227521 -232001 -212158 -325849
832349347879608320 -227586 -232053 -212243 -325873
832349347897822464 -227557 -232042 -212237 -325826
832349347916036480 -227601 -232114 -212364 -325851
832349347934250496 -227585 -232041 -212300 -325829
832349347952464512 -227574 -232027 -212317 -325847
832349347970678656 -227567 -232026 -212250 -325885
832349347988892672 -227567 -232063 -212267 -325836
832349348007106688 -227580 -232055 -212263 -325863
832349348025320832 -227595 -232032 -212204 -325834
832349348043534848 -227597 -232097 -212255 -325846
832349348061748864 -227527 -232044 -212214 -325820
832349348079962880 -227601 -232082 -212231 -325803
832349348098177024 -227590 -232075 -212249 -325826
832349348116391040 -227584 -232110 -212287 -325805
832349348134605056 -227575 -232112 -212295 -325779
832349348152819072 -227577 -232089 -212234 -325849
832349348171033216 -227528 -232071 -212264 -325853
832349348189247232 -227575 -232066 -212253 -325852
832349348207461248 -227587 -232078 -212250 -325856
832349348225675392 -227503 -231936 -212155 -325820
832349348243889408 -227560 -232041 -212207 -325834
832349348262103446 -227427 -232058 -212219 -325814
832349348280316544 -227497 -232037 -212246 -325835
832349348298529664 -227588 -232090 -212302 -325807
832349348316742784 -227590 -232077 -212260 -325798
832349348334956032 -227589 -232111 -212307 -325790
832349348353169152 -227546 -232066 -212232 -325816
832349348371382272 -227529 -232055 -212221 -325819
832349348389595392 -227543 -232088 -212209 -325815
832349348407808512 -227596 -232061 -212256 -325822
832349348426021632 -227556 -232091 -212250 -325812
832349348444234880 -227538 -231992 -212185 -325860
832349348462448000 -227489 -231991 -212195 -325794
832349348480661120 -227506 -232033 -212217 -325775
832349348498874240 -227618 -232057 -212325 -325863
832349348517087360 -227610 -232081 -212311 -325828
832349348535300480 -227720 -232129 -212517 -325835
832349348553513728 -228676 -232706 -214208 -325859
832349348571726848 -229020 -232987 -214964 -325769
832349348589939968 -229248 -233100 -215210 -325812
832349348608153088 -229264 -233110 -215361 -325775
832349348626366208 -229294 -233116 -215379 -325775
832349348644579456 -229290 -233128 -215407 -325754
832349348662792576 -229332 -233125 -215394 -325800
832349348681005696 -229310 -233099 -215380 -325778
832349348699218816 -229328 -233101 -215380 -325812
832349348717431936 -229331 -233106 -215414 -325849
832349348735645056 -229338 -233153 -215465 -325824
832349348753858304 -229363 -233148 -215567 -325823
832349348772071424 -229374 -233134 -215523 -325809
832349348790284544 -229379 -233112 -215490 -325763
832349348808497664 -229459 -233113 -215480 -325875
832349348826710784 -229381 -233127 -215444 -325919
832349348844923904 -229318 -233087 -215395 -325848
832349348863137152 -229392 -233107 -215473 -325881
832349348881350272 -229361 -233099 -215388 -325824
832349348899563392 -229405 -233141 -215431 -325843
832349348917776512 -229398 -233237 -215457 -325902
832349348935989632 -229400 -233199 -215565 -325823
832349348954202880 -229406 -233150 -215561 -325833
832349348972416000 -229402 -233164 -215492 -325852
832349348990629120 -229391 -233162 -215460 -325858
832349349008842240 -229350 -233140 -215485 -325874
832349349027055360 -229410 -233142 -215475 -325836
832349349045268480 -229366 -233165 -215473 -325811
832349349063481728 -229383 -233215 -215452 -325825
832349349081694848 -229334 -233191 -215369 -325822
832349349099908002 -229367 -233171 -215420 -325832
832349349118121088 -229378 -233189 -215498 -325864
832349349136334208 -229357 -233182 -215451 -325839
832349349154547328 -229363 -233147 -215516 -325805
832349349172760576 -229410 -233160 -215522 -325857
832349349190973696 -229412 -233167 -215519 -325824
832349349209186816 -229345 -233124 -215495 -325822
832349349227399936 -229315 -233179 -215491 -325818
832349349245613056 -229400 -233162 -215454 -325780
832349349263826176 -229398 -233119 -215360 -325872
832349349282039424 -229365 -233129 -215393 -325837
832349349300252544 -229371 -233108 -215380 -325830
832349349318465664 -229346 -233140 -215476 -325840
832349349336678784 -229346 -233149 -215500 -325835
832349349354891904 -229316 -233123 -215509 -325808
832349349373105024 -229326 -233163 -215486 -325770
832349349391318272 -229328 -233102 -215451 -325778
832349349409531392 -229333 -233155 -215389 -325830
832349349427744512 -229333 -233122 -215471 -325842
832349349445957632 -229315 -233117 -215448 -325829
832349349464170752 -229300 -233138 -215422 -325857
832349349482383872 -229294 -233110 -215379 -325863
832349349500597120 -229334 -233147 -215422 -325816
832349349518810240 -229408 -233224 -215529 -325832
832349349537023360 -229243 -233094 -215167 -325858
832349349555236480 -230073 -233548 -216913 -325808
832349349573449600 -230408 -233793 -217647 -325770
832349349591662848 -230598 -233866 -218006 -325792
832349349609875968 -230649 -233903 -218156 -325812
832349349628089088 -230640 -233910 -218164 -325786
832349349646302208 -230659 -233891 -218083 -325829
832349349664515328 -230640 -233887 -218166 -325797
832349349682728448 -230700 -233925 -218239 -325857
832349349700941696 -230603 -233841 -218169 -325834
832349349719154816 -230680 -233885 -218208 -325855
832349349737367936 -230623 -233844 -218126 -325822
832349349755581056 -230660 -233898 -218229 -325851
832349349773794176 -230694 -233936 -218194 -325813
832349349792007296 -230717 -233968 -218249 -325845
832349349810220544 -230743 -233982 -218268 -325908
832349349828433664 -230747 -233972 -218183 -325848
832349349846646840 -230776 -233964 -218203 -325837
832349349864860672 -230708 -233984 -218170 -325856
832349349883074560 -230726 -233967 -218156 -325849
832349349901288320 -230695 -233909 -218138 -325840
832349349919502208 -230667 -233867 -218134 -325802
832349349937716096 -230653 -233972 -218182 -325788
832349349955929984 -230694 -233912 -218230 -325823
832349349974143744 -230743 -233960 -218310 -325812
832349349992357632 -230740 -233971 -218374 -325832
832349350010571520 -230720 -233924 -218235 -325809
832349350028785280 -230679 -233953 -218196 -325818
832349350046999168 -230683 -233923 -218154 -325884
832349350065213056 -230680 -233883 -218154 -325890
832349350083426944 -230720 -233906 -218195 -325931
832349350101640704 -230692 -233904 -218119 -325869
832349350119854592 -230651 -233899 -218150 -325839
832349350138068480 -230698 -233952 -218226 -325849
832349350156282368 -230754 -233960 -218235 -325913
832349350174496128 -230834 -233970 -218278 -325859
832349350192710016 -230754 -233970 -218269 -325880
832349350210923904 -230720 -233937 -218195 -325851
832349350229137664 -230654 -233922 -218138 -325857
832349350247351552 -230681 -233906 -218179 -325812
832349350265565440 -230685 -234004 -218175 -325848
832349350283779328 -230668 -233986 -218211 -325799
832349350301993088 -230689 -233900 -218182 -325842
832349350320206976 -230726 -233863 -218182 -325841
832349350338420864 -230785 -233912 -218256 -325915
832349350356634624 -230708 -233939 -218209 -325842
832349350374848512 -230751 -233929 -218272 -325858
832349350393062400 -230706 -233996 -218235 -325850
832349350411276288 -230700 -233910 -218236 -325859
832349350429490048 -230633 -233983 -218198 -325857
832349350447703936 -230679 -233957 -218165 -325834
832349350465917824 -230683 -233912 -218177 -325853
832349350484131584 -230745 -233991 -218235 -325880
832349350502345472 -230706 -233943 -218158 -325869
832349350520559360 -230703 -233909 -218178 -325814
832349350538773248 -230692 -233879 -218056 -325817
832349350556987008 -231218 -234230 -219377 -325871
832349350575200896 -231484 -234303 -219986 -325778
832349350593414784 -231645 -234448 -220311 -325891
832349350611628544 -231677 -234462 -220479 -325817
832349350629842480 -231725 -234518 -220523 -325869
832349350648056704 -231682 -234512 -220426 -325855
832349350666270976 -231677 -234464 -220471 -325846
832349350684485248 -231657 -234517 -220493 -325870
832349350702699520 -231689 -234496 -220458 -325851
832349350720913664 -231680 -234488 -220434 -325860
832349350739127936 -231701 -234545 -220403 -325900
832349350757342208 -231643 -234471 -220436 -325854
832349350775556480 -231746 -234523 -220521 -325899
832349350793770752 -231756 -234461 -220525 -325818
832349350811985024 -231728 -234523 -220562 -325830
832349350830199296 -231756 -234486 -220555 -325822
832349350848413568 -231754 -234479 -220527 -325865
832349350866627712 -231719 -234467 -220480 -325846
832349350884841984 -231746 -234513 -220485 -325891
832349350903056256 -231704 -234548 -220470 -325832
832349350921270528 -231689 -234512 -220435 -325808
832349350939484800 -231703 -234501 -220475 -325839
832349350957699072 -231726 -234465 -220479 -325898
832349350975913344 -231742 -234496 -220462 -325905
832349350994127488 -231787 -234444 -220508 -325883
832349351012341760 -231758 -234496 -220544 -325868
832349351030556032 -231722 -234548 -220525 -325930
832349351048770304 -231670 -234517 -220498 -325925
832349351066984576 -231721 -234507 -220460 -325885
832349351085198848 -231699 -234490 -220485 -325862
832349351103413120 -231713 -234519 -220478 -325858
832349351121627392 -231722 -234465 -220456 -325872
832349351139841536 -231699 -234483 -220379 -325897
832349351158055808 -231756 -234522 -220473 -325863
832349351176270080 -231757 -234484 -220463 -325821
832349351194484352 -231742 -234507 -220566 -325880
832349351212698624 -231738 -234517 -220554 -325862
832349351230912896 -231737 -234415 -220472 -325739
832349351249127168 -231728 -234471 -220522 -325865
832349351267341312 -231706 -234436 -220455 -325842
832349351285555584 -231751 -234482 -220414 -325842
832349351303769856 -231685 -234471 -220413 -325785
832349351321984128 -231652 -234421 -220389 -325837
832349351340198400 -231667 -234402 -220390 -325781
832349351358412672 -231644 -234380 -220468 -325820
832349351376626944 -231707 -234439 -220479 -325815
832349351394841216 -231711 -234448 -220557 -325823
832349351413055360 -231772 -234480 -220579 -325879
832349351431269632 -231711 -234448 -220494 -325849
832349351449483904 -231681 -234512 -220464 -325877
832349351467698176 -231711 -234515 -220428 -325884
832349351485912448 -231730 -234505 -220461 -325896
832349351504126720 -231689 -234482 -220429 -325811
832349351522340736 -231687 -234465 -220425 -325818
832349351540554752 -231686 -234497 -220411 -325848
832349351558768640 -231673 -234476 -220425 -325873
832349351576982656 -232161 -234773 -221534 -325856
832349351595196672 -232330 -234774 -222020 -325894
832349351613410560 -232463 -234868 -222271 -325863
832349351631624576 -232494 -234845 -222368 -325887
832349351649838592 -232506 -234862 -222365 -325832
832349351668052480 -232506 -234869 -222351 -325859
832349351686266496 -232443 -234882 -222347 -325845
832349351704480512 -232476 -234903 -222350 -325830
832349351722694400 -232471 -234922 -222368 -325874
832349351740908416 -232432 -234926 -222332 -325877
832349351759122432 -232402 -234917 -222321 -325845
832349351777336320 -232397 -234839 -222308 -325831
832349351795550336 -232473 -234934 -222465 -325856
832349351813764352 -232459 -234838 -222393 -325862
832349351831978368 -232537 -234912 -222453 -325889
832349351850192256 -232491 -234895 -222358 -325858
832349351868406272 -232475 -234892 -222379 -325840
832349351886620288 -232479 -234912 -222407 -325867
832349351904834176 -232398 -234857 -222336 -325851
832349351923048192 -232460 -234835 -222323 -325889
832349351941262208 -232388 -234836 -222261 -325860
832349351959476096 -232426 -234886 -222301 -325851
832349351977690112 -232441 -234877 -222364 -325804
832349351995904128 -232432 -234852 -222374 -325789
832349352014118016 -232463 -234903 -222418 -325782
832349352032332032 -232498 -234872 -222417 -325799
832349352050546048 -232417 -234955 -222407 -325812
832349352068759936 -232429 -234880 -222354 -325837
832349352086973952 -232430 -234899 -222353 -325915
832349352105187968 -232459 -234802 -222280 -325904
832349352123401856 -232454 -234876 -222310 -325873
832349352141615872 -232401 -234859 -222283 -325834
832349352159829888 -232501 -234866 -222257 -325871
832349352178043776 -232464 -234934 -222378 -325839
832349352196257792 -232432 -234846 -222405 -325805
832349352214471808 -232502 -234886 -222441 -325822
832349352232685696 -232510 -234878 -222433 -325845
832349352250899712 -232433 -234820 -222352 -325869
832349352269113728 -232446 -234925 -222350 -325874
832349352287327616 -232423 -234844 -222303 -325832
832349352305541606 -232446 -234819 -222299 -325848
832349352323754368 -232414 -234866 -222281 -325841
832349352341967104 -232479 -234893 -222306 -325813
832349352360179712 -232426 -234926 -222297 -325779
832349352378392448 -232508 -234912 -222392 -325854
832349352396605056 -232500 -234929 -222406 -325913
832349352414817792 -232528 -234861 -222431 -325885
832349352433030400 -232480 -234885 -222402 -325803
832349352451243136 -232457 -234934 -222362 -325832
832349352469455744 -232453 -234864 -222316 -325833
832349352487668480 -232428 -234891 -222302 -325841
832349352505881088 -232452 -234890 -222295 -325824
832349352524093824 -232468 -234911 -222352 -325858
832349352542306560 -232405 -234883 -222347 -325835
832349352560519168 -232391 -234818 -222253 -325792
832349352578731904 -232748 -235041 -223157 -325869
832349352596944512 -232883 -235038 -223561 -325854
832349352615157248 -232954 -235131 -223768 -325797
832349352633369856 -233019 -235159 -223839 -325816
832349352651582592 -233053 -235164 -223950 -325768
832349352669795200 -233060 -235185 -223837 -325770
832349352688007936 -233021 -235153 -223845 -325805
832349352706220544 -233066 -235154 -223891 -325805
832349352724433280 -232992 -235165 -223842 -325815
832349352742646016 -233012 -235145 -223825 -325825
832349352760858624 -232986 -235186 -223843 -325848
832349352779071360 -233027 -235207 -223875 -325766
832349352797283968 -233093 -235178 -223937 -325848
832349352815496704 -233050 -235204 -223949 -325914
832349352833709312 -233059 -235165 -223950 -325841
832349352851922048 -233098 -235159 -223955 -325876
832349352870134656 -233118 -235164 -223979 -325882
832349352888347392 -233156 -235220 -223970 -325886
832349352906560128 -233072 -235221 -223957 -325880
832349352924772736 -233012 -235154 -223915 -325816
832349352942985472 -233028 -235180 -223920 -325837
832349352961198080 -233085 -235246 -223942 -325893
832349352979410816 -233077 -235196 -223882 -325875
832349352997623424 -233023 -235205 -223867 -325813
832349353015836160 -233067 -235223 -223905 -325811
832349353034048768 -233095 -235209 -224009 -325886
832349353052261504 -233069 -235216 -223996 -325845
832349353070474112 -233028 -235200 -223926 -325811
832349353088686848 -233049 -235241 -223948 -325814
832349353106899584 -233062 -235197 -223965 -325856
832349353125112192 -233059 -235235 -223868 -325796
832349353143324798 -233031 -235168 -223872 -325785
832349353161539456 -233054 -235177 -223876 -325826
832349353179754112 -233032 -235210 -223880 -325853
832349353197968768 -232982 -235199 -223866 -325832
832349353216183424 -233020 -235186 -223897 -325780
832349353234398080 -233055 -235193 -223966 -325854
832349353252612736 -233141 -235198 -223949 -325839
832349353270827520 -233112 -235153 -223975 -325860
832349353289042176 -233104 -235151 -223921 -325816
832349353307256832 -233017 -235128 -223872 -325890
832349353325471488 -233052 -235129 -223902 -325853
832349353343686144 -232959 -235179 -223848 -325862
832349353361900800 -232921 -235138 -223803 -325812
832349353380115456 -233004 -235147 -223839 -325804
832349353398330112 -233019 -235161 -223856 -325845
832349353416544768 -233069 -235219 -223951 -325888
832349353434759424 -233078 -235171 -223987 -325864
832349353452974208 -233103 -235190 -223976 -325835
832349353471188864 -233073 -235165 -223899 -325833
832349353489403520 -233021 -235166 -223900 -325847
832349353507618176 -233073 -235158 -223906 -325821
832349353525832832 -232992 -235132 -223841 -325854
832349353544047488 -232976 -235160 -223888 -325851
832349353562262144 -233045 -235175 -223797 -325872
832349353580476800 -233283 -235282 -224530 -325834
832349353598691456 -233396 -235325 -224856 -325777
832349353616906112 -233463 -235361 -224986 -325805
832349353635120768 -233515 -235400 -225116 -325791
832349353653335552 -233470 -235390 -225167 -325824
832349353671550208 -233541 -235474 -225222 -325858
832349353689764864 -233473 -235418 -225202 -325801
832349353707979520 -233516 -235412 -225270 -325822
832349353726194176 -233516 -235418 -225185 -325805
832349353744408832 -233550 -235418 -225153 -325839
832349353762623488 -233521 -235444 -225128 -325818
832349353780838144 -233513 -235448 -225119 -325860
832349353799052800 -233515 -235450 -225091 -325854
832349353817267456 -233493 -235347 -225078 -325804
832349353835482240 -233512 -235427 -225138 -325814
832349353853696896 -233529 -235467 -225186 -325854
832349353871911552 -233580 -235382 -225285 -325814
832349353890126198 -233523 -235410 -225234 -325823
832349353908340096 -233487 -235404 -225139 -325804
832349353926553984 -233521 -235440 -225153 -325862
832349353944768000 -233507 -235429 -225156 -325865
832349353962981888 -233448 -235409 -225148 -325832
832349353981195904 -233445 -235388 -225170 -325845
832349353999409792 -233487 -235426 -225095 -325890
832349354017623808 -233512 -235482 -225133 -325868
832349354035837696 -233479 -235402 -225215 -325917
832349354054051584 -233524 -235469 -225222 -325831
832349354072265600 -233554 -235453 -225279 -325870
832349354090479488 -233592 -235429 -225202 -325805
832349354108693504 -233584 -235420 -225171 -325871
832349354126907392 -233537 -235378 -225104 -325797
832349354145121280 -233501 -235357 -225143 -325831
832349354163335296 -233507 -235360 -225145 -325875
832349354181549184 -233483 -235389 -225112 -325867
832349354199763200 -233449 -235372 -225121 -325839
832349354217977088 -233490 -235418 -225114 -325886
832349354236191104 -233517 -235457 -225250 -325858
832349354254404992 -233494 -235319 -225248 -325838
832349354272618880 -233533 -235459 -225270 -325897
832349354290832896 -233548 -235404 -225211 -325862
832349354309046784 -233543 -235419 -225174 -325843
832349354327260800 -233506 -235369 -225146 -325847
832349354345474688 -233492 -235361 -225165 -325855
832349354363688576 -233465 -235401 -225160 -325901
832349354381902592 -233516 -235418 -225121 -325889
832349354400116480 -233467 -235410 -225099 -325832
832349354418330496 -233486 -235380 -225173 -325812
832349354436544384 -233562 -235421 -225147 -325830
832349354454758400 -233560 -235428 -225171 -325806
832349354472972288 -233562 -235439 -225188 -325841
832349354491186176 -233551 -235402 -225157 -325876
832349354509400192 -233525 -235453 -225188 -325858
832349354527614080 -233474 -235376 -225114 -325796
832349354545828096 -233473 -235373 -225140 -325867
832349354564041984 -233494 -235388 -225115 -325862
832349354582256000 -233687 -235471 -225713 -325802
832349354600469888 -233753 -235529 -225986 -325842
832349354618683776 -233838 -235602 -226124 -325822
832349354636897792 -233859 -235619 -226127 -325824
832349354655111748 -233885 -235630 -226214 -325845
832349354673325952 -233892 -235575 -226266 -325879
832349354691540096 -233897 -235507 -226257 -325762
832349354709754240 -233943 -235582 -226286 -325839
832349354727968384 -233952 -235585 -226237 -325870
832349354746182528 -233918 -235588 -226176 -325842
832349354764396672 -233811 -235548 -226138 -325804
832349354782610816 -233821 -235547 -226187 -325838
832349354800824960 -233855 -235580 -226171 -325830
832349354819039104 -233837 -235555 -226169 -325803
832349354837253248 -233833 -235581 -226159 -325737
832349354855467392 -233855 -235567 -226176 -325800
832349354873681536 -233869 -235602 -226189 -325809
832349354891895680 -233886 -235624 -226224 -325847
832349354910109696 -233846 -235576 -226230 -325847
832349354928323840 -233907 -235580 -226228 -325852
832349354946537984 -233874 -235568 -226146 -325837
832349354964752128 -233965 -235658 -226226 -325851
832349354982966272 -233850 -235668 -226207 -325794
832349355001180416 -233905 -235594 -226170 -325805
832349355019394560 -233837 -235570 -226139 -325775
832349355037608704 -233869 -235632 -226192 -325875
832349355055822848 -233838 -235591 -226188 -325812
832349355074036992 -233904 -235587 -226193 -325781
832349355092251136 -233872 -235586 -226251 -325859
832349355110465280 -233913 -235592 -226204 -325819
832349355128679424 -233907 -235570 -226219 -325838
832349355146893568 -233916 -235511 -226196 -325858
832349355165107712 -233899 -235558 -226210 -325854
832349355183321856 -233907 -235564 -226133 -325818
832349355201536000 -233875 -235592 -226119 -325840
832349355219750144 -233847 -235627 -226117 -325837
832349355237964288 -233857 -235552 -226227 -325824
832349355256178432 -233849 -235529 -226198 -325817
832349355274392576 -233866 -235592 -226236 -325843
832349355292606720 -233812 -235555 -226175 -325841
832349355310820864 -233842 -235609 -226206 -325763
832349355329035008 -233856 -235603 -226153 -325794
832349355347249152 -233821 -235562 -226125 -325818
832349355365463168 -233869 -235558 -226151 -325799
832349355383677312 -233865 -235572 -226191 -325804
832349355401891456 -233816 -235586 -226248 -325801
832349355420105600 -233855 -235530 -226143 -325799
832349355438319744 -233855 -235521 -226154 -325786
832349355456533888 -233876 -235577 -226184 -325789
832349355474748032 -233866 -235565 -226205 -325815
832349355492962176 -233900 -235599 -226232 -325836
832349355511176320 -233908 -235606 -226219 -325850
832349355529390464 -233909 -235571 -226178 -325867
832349355547604550 -233879 -235586 -226158 -325808
832349355565818368 -233848 -235554 -226149 -325800
832349355584032128 -233774 -235625 -226147 -325831
832349355602246016 -234039 -235634 -226598 -325856
832349355620459776 -234088 -235659 -226921 -325850
832349355638673536 -234123 -235671 -226977 -325883
832349355656887424 -234169 -235675 -227019 -325849
832349355675101184 -234175 -235688 -226987 -325886
832349355693315072 -234161 -235687 -227076 -325791
832349355711528832 -234215 -235712 -227133 -325847
832349355729742592 -234158 -235697 -227091 -325800
832349355747956480 -234119 -235711 -227028 -325746
832349355766170240 -234111 -235695 -227070 -325837
832349355784384000 -234220 -235747 -227082 -325858
832349355802597888 -234168 -235709 -227006 -325818
832349355820811648 -234159 -235711 -227087 -325829
832349355839025408 -234138 -235678 -227014 -325833
832349355857239296 -234151 -235701 -227028 -325807
832349355875453056 -234155 -235781 -227045 -325852
832349355893666816 -234217 -235785 -227070 -325835
832349355911880704 -234242 -235749 -227068 -325865
832349355930094464 -234154 -235731 -227085 -325812
832349355948308352 -234174 -235780 -227081 -325830
832349355966522112 -234146 -235778 -227055 -325847
832349355984735872 -234149 -235719 -227019 -325841
832349356002949760 -234180 -235689 -227021 -325864
832349356021163520 -234196 -235718 -227036 -325816
832349356039377280 -234122 -235696 -227058 -325862
832349356057591168 -234102 -235714 -227036 -325828
832349356075804928 -234143 -235741 -227085 -325828
832349356094018688 -234205 -235724 -227173 -325842
832349356112232576 -234197 -235675 -227127 -325862
832349356130446336 -234147 -235673 -227051 -325797
832349356148660096 -234110 -235666 -227010 -325784
832349356166873984 -234130 -235722 -227040 -325819
832349356185087744 -234175 -235725 -227025 -325869
832349356203301632 -234161 -235735 -227051 -325840
832349356221515392 -234199 -235744 -227073 -325843
832349356239729152 -234175 -235769 -227109 -325854
832349356257943040 -234143 -235696 -227058 -325789
832349356276156800 -234202 -235758 -227110 -325832
832349356294370560 -234170 -235730 -227088 -325788
832349356312584448 -234110 -235676 -227075 -325794
832349356330798208 -234130 -235680 -227059 -325838
832349356349011968 -234194 -235706 -227070 -325833
832349356367225856 -234166 -235730 -227042 -325789
832349356385439624 -234138 -235708 -227083 -325804
832349356403652736 -234131 -235705 -227043 -325786
832349356421865856 -234122 -235702 -227043 -325821
832349356440078976 -234152 -235693 -226991 -325845
832349356458292224 -234144 -235695 -227005 -325860
832349356476505344 -234185 -235705 -227059 -325802
832349356494718464 -234195 -235718 -227159 -325846
832349356512931584 -234206 -235729 -227175 -325867
832349356531144704 -234123 -235668 -227063 -325825
832349356549357824 -234151 -235732 -227061 -325816
832349356567571072 -234172 -235738 -227068 -325791
832349356585784192 -234131 -235744 -227009 -325811
832349356603997312 -234267 -235775 -227344 -325783
832349356622210432 -234384 -235810 -227560 -325814
832349356640423552 -234382 -235806 -227647 -325805
832349356658636672 -234399 -235864 -227736 -325835
832349356676849920 -234385 -235813 -227696 -325870
832349356695063040 -234369 -235838 -227777 -325826
832349356713276160 -234366 -235804 -227788 -325831
832349356731489280 -234401 -235799 -227809 -325803
832349356749702400 -234441 -235811 -227830 -325791
832349356767915520 -234422 -235796 -227789 -325796
832349356786128768 -234378 -235794 -227717 -325771
832349356804341888 -234391 -235784 -227797 -325836
832349356822555008 -234414 -235811 -227768 -325800
832349356840768128 -234393 -235799 -227757 -325856
832349356858981248 -234371 -235849 -227779 -325818
832349356877194496 -234352 -235780 -227753 -325808
832349356895407616 -234409 -235831 -227783 -325830
832349356913620736 -234398 -235773 -227764 -325761
832349356931833856 -234384 -235794 -227819 -325792
832349356950046976 -234335 -235725 -227761 -325764
832349356968260096 -234331 -235786 -227665 -325792
832349356986473344 -234395 -235850 -227705 -325816
832349357004686464 -234353 -235802 -227695 -325817
832349357022899584 -234342 -235767 -227670 -325862
832349357041112704 -234360 -235774 -227733 -325812
832349357059325824 -234433 -235803 -227724 -325802
832349357077538944 -234395 -235752 -227725 -325809
832349357095752192 -234403 -235764 -227746 -325797
832349357113965312 -234407 -235797 -227783 -325843
832349357132178432 -234400 -235831 -227821 -325808
832349357150391552 -234431 -235806 -227753 -325785
832349357168604672 -234436 -235821 -227776 -325841
832349357186817920 -234403 -235817 -227720 -325781
832349357205031040 -234331 -235811 -227714 -325723
832349357223244160 -234337 -235841 -227776 -325775
832349357241457280 -234398 -235811 -227746 -325809
832349357259670400 -234363 -235793 -227697 -325875
832349357277883598 -234318 -235776 -227671 -325840
832349357296097408 -234346 -235791 -227738 -325823
832349357314311168 -234411 -235826 -227767 -325816
832349357332525056 -234371 -235846 -227794 -325813
832349357350738816 -234361 -235828 -227717 -325802
832349357368952576 -234382 -235838 -227734 -325824
832349357387166464 -234387 -235869 -227767 -325819
832349357405380224 -234432 -235824 -227733 -325840
832349357423594112 -234396 -235796 -227721 -325863
832349357441807872 -234416 -235796 -227736 -325852
832349357460021632 -234431 -235820 -227707 -325841
832349357478235520 -234421 -235777 -227734 -325787
832349357496449280 -234331 -235762 -227734 -325804
832349357514663040 -234386 -235760 -227830 -325841
832349357532876928 -234390 -235880 -227866 -325836
832349357551090688 -234361 -235834 -227771 -325807
832349357569304448 -234425 -235809 -227770 -325807
832349357587518336 -234387 -235767 -227729 -325835
832349357605732096 -234462 -235851 -228022 -325863
832349357623945856 -234567 -235889 -228201 -325872
832349357642159744 -234566 -235893 -228268 -325850
832349357660373504 -234606 -235911 -228398 -325906
832349357678587392 -234588 -235985 -228344 -325829
832349357696801152 -234558 -235928 -228308 -325788
832349357715014912 -234558 -235857 -228267 -325754
832349357733228800 -234600 -235851 -228271 -325821
832349357751442560 -234554 -235883 -228362 -325804
832349357769656320 -234570 -235902 -228356 -325787
832349357787870208 -234554 -235926 -228412 -325850
832349357806083968 -234532 -235897 -228374 -325794
832349357824297728 -234596 -235953 -228398 -325859
832349357842511616 -234576 -235841 -228346 -325840
832349357860725376 -234524 -235820 -228328 -325796
832349357878939136 -234554 -235857 -228289 -325755
832349357897153024 -234523 -235923 -228320 -325780
832349357915366784 -234596 -235904 -228306 -325824
832349357933580672 -234548 -235842 -228305 -325764
832349357951794432 -234601 -235935 -228347 -325815
832349357970008192 -234590 -235894 -228388 -325761
832349357988222080 -234586 -235852 -228325 -325772
832349358006435840 -234544 -235859 -228305 -325807
832349358024649600 -234557 -235886 -228345 -325816
832349358042863488 -234583 -235877 -228334 -325819
832349358061077248 -234558 -235952 -228329 -325825
832349358079291008 -234573 -235909 -228326 -325816
832349358097504896 -234620 -235935 -228329 -325818
832349358115718664 -234598 -235889 -228343 -325802
832349358133931776 -234576 -235886 -228295 -325792
832349358152144896 -234574 -235909 -228282 -325832
832349358170358016 -234559 -235860 -228351 -325808
832349358188571264 -234538 -235855 -228270 -325771
832349358206784384 -234561 -235876 -228280 -325772
832349358224997504 -234539 -235906 -228252 -325781
832349358243210624 -234598 -235947 -228316 -325857
832349358261423744 -234626 -235940 -228371 -325845
832349358279636864 -234563 -235872 -228278 -325828
832349358297850112 -234635 -235960 -228304 -325836
832349358316063232 -234620 -235931 -228295 -325879
832349358334276352 -234556 -235930 -228355 -325825
832349358352489472 -234629 -235933 -228363 -325790
832349358370702592 -234586 -235930 -228341 -325786
832349358388915712 -234618 -235872 -228304 -325821
832349358407128960 -234616 -235944 -228363 -325847
832349358425342080 -234579 -235923 -228376 -325823
832349358443555200 -234582 -235956 -228323 -325840
832349358461768320 -234609 -235918 -228392 -325858
832349358479981440 -234621 -235923 -228384 -325887
832349358498194688 -234597 -235899 -228415 -325820
832349358516407808 -234588 -235922 -228369 -325787
832349358534620928 -234596 -235903 -228365 -325773
832349358552834048 -234618 -235949 -228437 -325750
832349358571047168 -234620 -235864 -228429 -325779
832349358589260288 -234591 -235840 -228299 -325804
832349358607473536 -234657 -235937 -228532 -325773
832349358625686656 -234724 -235948 -228696 -325816
832349358643899776 -234697 -235946 -228778 -325846
832349358662112896 -234756 -235894 -228803 -325813
832349358680326016 -234711 -235985 -228843 -325785
832349358698539136 -234744 -235990 -228855 -325806
832349358716752384 -234716 -235939 -228847 -325786
832349358734965504 -234777 -235967 -228802 -325841
832349358753178624 -234741 -235981 -228834 -325855
832349358771391744 -234772 -236009 -228864 -325804
832349358789604864 -234757 -235985 -228859 -325784
832349358807818112 -234683 -235949 -228823 -325747
832349358826031232 -234772 -236005 -228854 -325831
832349358844244352 -234727 -235979 -228856 -325835
832349358862457472 -234773 -235994 -228838 -325806
832349358880670592 -234729 -235935 -228826 -325779
832349358898883712 -234743 -235937 -228868 -325837
832349358917096960 -234784 -236015 -228832 -325834
832349358935310080 -234750 -235988 -228830 -325865
832349358953523220 -234762 -235987 -228893 -325804
832349358971737600 -234733 -235955 -228851 -325789
832349358989952000 -234703 -235902 -228828 -325777
832349359008166400 -234681 -235884 -228794 -325779
832349359026380800 -234704 -235978 -228801 -325831
832349359044595200 -234765 -235971 -228821 -325868
832349359062809728 -234720 -235988 -228795 -325832
832349359081024128 -234705 -235999 -228821 -325855
832349359099238528 -234707 -235998 -228836 -325822
832349359117452928 -234751 -235949 -228822 -325837
832349359135667328 -234740 -235956 -228832 -325833
832349359153881728 -234748 -235977 -228837 -325823
832349359172096128 -234753 -235964 -228867 -325779
832349359190310528 -234818 -236017 -228945 -325850
832349359208524928 -234767 -235938 -228863 -325838
832349359226739456 -234756 -235981 -228834 -325813
832349359244953856 -234800 -236008 -228823 -325863
832349359263168256 -234772 -235996 -228829 -325794
832349359281382656 -234785 -236013 -228838 -325788
832349359299597056 -234732 -235963 -228893 -325802
832349359317811456 -234751 -235953 -228865 -325790
832349359336025856 -234791 -236026 -228906 -325858
832349359354240256 -234734 -235957 -228860 -325814
832349359372454656 -234789 -235960 -228905 -325786
832349359390669184 -234792 -235998 -228905 -325770
832349359408883584 -234720 -235971 -228807 -325790
832349359427097984 -234720 -235996 -228888 -325825
832349359445312384 -234783 -235998 -228871 -325845
832349359463526784 -234766 -235992 -228871 -325855
832349359481741184 -234739 -235978 -228833 -325845
832349359499955584 -234779 -235982 -228906 -325820
832349359518169984 -234749 -235979 -228886 -325864
832349359536384384 -234686 -235937 -228839 -325795
832349359554598784 -234734 -235967 -228831 -325818
832349359572813312 -234794 -235986 -228906 -325830
832349359591027712 -234775 -236013 -228875 -325779
832349359609242112 -234784 -235992 -228905 -325849
832349359627456512 -234822 -235990 -229177 -325806
832349359645670912 -234845 -236029 -229239 -325797
832349359663885312 -234842 -236040 -229259 -325801
832349359682099712 -234894 -236077 -229274 -325809
832349359700314112 -234878 -236086 -229274 -325817
832349359718528512 -234919 -236015 -229224 -325795
832349359736743040 -234870 -236005 -229248 -325777
832349359754957440 -234851 -236048 -229273 -325839
832349359773171840 -234859 -236004 -229226 -325808
832349359791386240 -234849 -236076 -229258 -325838
832349359809600640 -234842 -236093 -229323 -325842
832349359827815088 -234873 -236038 -229285 -325814
832349359846028800 -234870 -236073 -229286 -325822
832349359864242560 -234834 -236042 -229238 -325805
832349359882456320 -234846 -236052 -229230 -325894
832349359900670080 -234827 -236033 -229214 -325840
832349359918883840 -234894 -236080 -229294 -325838
832349359937097600 -234926 -236058 -229324 -325850
832349359955311360 -234931 -236090 -229342 -325879
832349359973525120 -234896 -236074 -229289 -325871
832349359991738880 -234892 -236039 -229305 -325830
832349360009952640 -234898 -236002 -229286 -325831
832349360028166400 -234940 -236113 -229338 -325847
832349360046380160 -234917 -236101 -229291 -325868
832349360064593920 -234937 -236003 -229294 -325846
832349360082807680 -234915 -236063 -229299 -325831
832349360101021440 -234870 -236035 -229275 -325828
832349360119235200 -234857 -235944 -229250 -325779
832349360137448960 -234914 -236063 -229234 -325830
832349360155662720 -234871 -236098 -229250 -325803
832349360173876480 -234869 -236089 -229309 -325815
832349360192090240 -234878 -236040 -229240 -325770
832349360210304000 -234879 -236076 -229250 -325756
832349360228517760 -234919 -235995 -229281 -325818
832349360246731520 -234903 -236031 -229245 -325797
832349360264945280 -234866 -236056 -229227 -325812
832349360283159040 -234839 -236039 -229264 -325774
832349360301372800 -234824 -235984 -229216 -325763
832349360319586560 -234871 -236032 -229311 -325777
832349360337800320 -234855 -236004 -229263 -325778
832349360356014080 -234849 -236033 -229275 -325818
832349360374227840 -234903 -236070 -229303 -325863
832349360392441600 -234916 -236071 -229331 -325840
832349360410655360 -234823 -236004 -229260 -325797
832349360428869120 -234774 -236007 -229245 -325780
832349360447082880 -234813 -236002 -229265 -325817
832349360465296640 -234814 -236036 -229215 -325760
832349360483510400 -234948 -236048 -229272 -325856
832349360501724160 -234932 -236068 -229291 -325868
832349360519937920 -234866 -235988 -229216 -325807
832349360538151680 -234873 -236056 -229212 -325821
832349360556365440 -234836 -236086 -229211 -325735
832349360574579200 -234893 -236069 -229268 -325842
832349360592792960 -234925 -236051 -229303 -325801
832349360611006720 -234862 -236011 -229088 -325846
832349360629220480 -234978 -236046 -229370 -325834
832349360647434240 -234980 -236122 -229559 -325795
832349360665648000 -234971 -236041 -229633 -325767
832349360683861772 -235008 -236111 -229620 -325840
832349360702076416 -234989 -236067 -229551 -325859
832349360720291072 -234975 -236031 -229519 -325779
832349360738505728 -235030 -236107 -229627 -325859
832349360756720384 -234994 -236103 -229644 -325826
832349360774935040 -235014 -236125 -229590 -325840
832349360793149696 -234972 -236135 -229572 -325825
832349360811364480 -234981 -236162 -229608 -325817
832349360829579136 -235022 -236081 -229642 -325815
832349360847793792 -234974 -236097 -229613 -325781
832349360866008448 -234957 -236154 -229642 -325832
832349360884223104 -234971 -236126 -229576 -325784
832349360902437760 -235002 -236080 -229599 -325807
832349360920652416 -234957 -236148 -229634 -325845
832349360938867072 -235008 -236127 -229630 -325894
832349360957081728 -234992 -236131 -229632 -325882
832349360975296384 -234998 -236118 -229597 -325831
832349360993511168 -235050 -236179 -229639 -325869
832349361011725824 -235046 -236102 -229657 -325830
832349361029940480 -235044 -236103 -229616 -325808
832349361048155136 -234967 -236149 -229655 -325773
832349361066369792 -234917 -236114 -229637 -325802
832349361084584448 -235005 -236135 -229625 -325846
832349361102799104 -234966 -236117 -229640 -325824
832349361121013760 -234989 -236116 -229584 -325812
832349361139228416 -234966 -236109 -229616 -325763
832349361157443072 -234965 -236094 -229643 -325884
832349361175657856 -234967 -236115 -229602 -325787
832349361193872512 -234979 -236154 -229614 -325782
832349361212087168 -234943 -236106 -229639 -325792
832349361230301824 -235034 -236089 -229615 -325842
832349361248516480 -235028 -236049 -229628 -325779
832349361266731136 -234978 -236103 -229616 -325813
832349361284945792 -234977 -236083 -229588 -325772
832349361303160448 -234979 -236092 -229625 -325900
832349361321375104 -235044 -236089 -229643 -325842
832349361339589760 -235027 -236101 -229660 -325783
832349361357804416 -234991 -236113 -229671 -325826
832349361376019200 -235035 -236121 -229659 -325799
832349361394233856 -234929 -236104 -229604 -325790
832349361412448512 -234979 -236132 -229641 -325826
832349361430663168 -234984 -236113 -229639 -325783
832349361448877824 -234976 -236110 -229672 -325814
832349361467092480 -235007 -236120 -229640 -325848
832349361485307136 -235015 -236050 -229668 -325852
832349361503521792 -235006 -236035 -229650 -325808
832349361521736448 -235009 -236073 -229671 -325848
832349361539951104 -234944 -236020 -229648 -325814
832349361558165854 -234970 -236045 -229588 -325797
832349361576380544 -235018 -236126 -229615 -325829
832349361594595200 -235024 -236085 -229644 -325825
832349361612809856 -235006 -236107 -229590 -325806
832349361631024512 -235031 -236120 -229834 -325802
832349361649239168 -235047 -236111 -229898 -325755
832349361667453824 -235151 -236167 -229930 -325886
832349361685668608 -235078 -236154 -229945 -325824
832349361703883264 -235105 -236153 -229869 -325850
832349361722097920 -235046 -236089 -229820 -325826
832349361740312576 -235146 -236171 -229891 -325799
832349361758527232 -235130 -236206 -229963 -325787
832349361776741888 -235137 -236174 -229949 -325807
832349361794956544 -235122 -236110 -229949 -325797
832349361813171200 -235084 -236131 -229860 -325828
832349361831385856 -235070 -236141 -229925 -325784
832349361849600512 -235109 -236167 -229972 -325820
832349361867815296 -235059 -236090 -229908 -325795
832349361886029952 -235149 -236162 -229926 -325798
832349361904244608 -235116 -236124 -229963 -325777
832349361922459264 -235066 -236102 -229926 -325789
832349361940673920 -235044 -236163 -229925 -325807
832349361958888576 -235108 -236148 -229918 -325848
832349361977103232 -235056 -236127 -229941 -325740
832349361995317888 -235051 -236124 -229875 -325752
832349362013532544 -235082 -236114 -229900 -325837
832349362031747200 -235069 -236124 -229931 -325797
832349362049961856 -235118 -236114 -229971 -325825
832349362068176640 -235185 -236163 -229991 -325806
832349362086391296 -235092 -236166 -230009 -325771
832349362104605952 -235109 -236176 -229982 -325815
832349362122820608 -235090 -236170 -229950 -325857
832349362141035264 -235109 -236149 -229907 -325867
832349362159249920 -235095 -236173 -229956 -325846
832349362177464576 -235071 -236219 -229929 -325798
832349362195679232 -235133 -236173 -229962 -325838
832349362213893888 -235077 -236165 -229889 -325783
832349362232108544 -235101 -236137 -229926 -325841
832349362250323328 -235129 -236128 -229963 -325875
832349362268537984 -235099 -236163 -229925 -325802
832349362286752640 -235087 -236160 -229915 -325872
832349362304967296 -235092 -236127 -229905 -325783
832349362323181952 -235122 -236197 -229937 -325868
832349362341396608 -235099 -236102 -229909 -325784
832349362359611264 -235075 -236183 -229899 -325782
832349362377825920 -235102 -236183 -229928 -325820
832349362396040576 -235092 -236159 -229966 -325817
832349362414255232 -235059 -236140 -229955 -325819
832349362432469930 -235111 -236130 -229966 -325862
832349362450684928 -235146 -236160 -230047 -325842
832349362468899968 -235143 -236122 -229966 -325846
832349362487115008 -235175 -236148 -229988 -325851
832349362505330048 -235079 -236040 -229913 -325813
832349362523545088 -235127 -236106 -229876 -325807
832349362541760128 -235122 -236075 -229944 -325817
832349362559975168 -235114 -236082 -229949 -325767
832349362578190336 -235036 -236075 -229971 -325816
832349362596405376 -235097 -236092 -229978 -325781
832349362614620416 -235050 -236163 -229935 -325789
832349362632835456 -235093 -236153 -229990 -325788
832349362651050496 -235178 -236196 -230115 -325824
832349362669265536 -235199 -236172 -230172 -325848
832349362687480576 -235207 -236214 -230176 -325842
832349362705695616 -235241 -236183 -230222 -325854
832349362723910656 -235173 -236165 -230145 -325812
832349362742125696 -235179 -236191 -230195 -325825
832349362760340736 -235238 -236193 -230213 -325832
832349362778555776 -235173 -236197 -230225 -325815
832349362796770816 -235200 -236167 -230182 -325819
832349362814985984 -235216 -236145 -230138 -325773
832349362833201024 -235238 -236256 -230223 -325866
832349362851416064 -235183 -236187 -230252 -325764
832349362869631104 -235135 -236220 -230165 -325799
832349362887846144 -235189 -236262 -230250 -325820
832349362906061184 -235152 -236255 -230195 -325823
832349362924276224 -235179 -236158 -230167 -325841
832349362942491264 -235164 -236142 -230166 -325788
832349362960706304 -235213 -236193 -230195 -325885
832349362978921344 -235199 -236223 -230217 -325854
832349362997136384 -235141 -236182 -230143 -325809
832349363015351424 -235151 -236163 -230184 -325786
832349363033566464 -235182 -236175 -230183 -325845
832349363051781632 -235176 -236201 -230156 -325792
832349363069996672 -235197 -236144 -230168 -325809
832349363088211712 -235149 -236166 -230195 -325760
832349363106426752 -235153 -236206 -230139 -325855
832349363124641792 -235188 -236204 -230156 -325817
832349363142856832 -235177 -236149 -230160 -325752
832349363161071872 -235217 -236178 -230240 -325813
832349363179286912 -235219 -236242 -230238 -325772
832349363197501952 -235254 -236297 -230273 -325817
832349363215716992 -235192 -236243 -230214 -325807
832349363233932032 -235204 -236130 -230174 -325804
832349363252147072 -235173 -236157 -230250 -325803
832349363270362112 -235232 -236185 -230254 -325841
832349363288577280 -235126 -236140 -230148 -325773
832349363306792320 -235198 -236195 -230168 -325782
832349363325007360 -235122 -236219 -230168 -325790
832349363343222400 -235158 -236236 -230229 -325809
832349363361437440 -235156 -236158 -230234 -325807
832349363379652520 -235207 -236202 -230196 -325832
832349363397867008 -235202 -236162 -230190 -325840
832349363416081536 -235153 -236196 -230165 -325785
832349363434295936 -235197 -236122 -230181 -325775
832349363452510464 -235218 -236172 -230173 -325783
832349363470724864 -235223 -236185 -230222 -325849
832349363488939392 -235209 -236209 -230204 -325782
832349363507153792 -235217 -236229 -230205 -325779
832349363525368320 -235204 -236157 -230173 -325802
832349363543582720 -235168 -236182 -230179 -325819
832349363561797248 -235222 -236116 -230156 -325833
832349363580011648 -235196 -236188 -230227 -325814
832349363598226176 -235160 -236103 -230142 -325788
832349363616440576 -235207 -236116 -230205 -325866
832349363634655104 -235151 -236159 -230177 -325799
832349363652869632 -235282 -236203 -230320 -325802
832349363671084032 -235260 -236196 -230307 -325807
832349363689298560 -235265 -236185 -230309 -325829
832349363707512960 -235289 -236230 -230410 -325814
832349363725727488 -235226 -236219 -230410 -325832
832349363743941888 -235291 -236274 -230437 -325842
832349363762156416 -235258 -236263 -230393 -325850
832349363780370816 -235260 -236201 -230422 -325787
832349363798585344 -235235 -236184 -230417 -325848
832349363816799744 -235252 -236167 -230412 -325792
832349363835014272 -235205 -236178 -230371 -325806
832349363853228800 -235226 -236175 -230398 -325760
832349363871443200 -235219 -236195 -230452 -325781
832349363889657728 -235275 -236186 -230438 -325796
832349363907872128 -235199 -236153 -230375 -325826
832349363926086656 -235265 -236222 -230464 -325829
832349363944301056 -235201 -236138 -230370 -325823
832349363962515584 -235137 -236209 -230373 -325829
832349363980729984 -235203 -236248 -230394 -325811
