TIMESTAMP PPG0 PPG1 PPG2 AMBIENT
832349672106350976 519130 412434 378087 180795
832349672124532736 519200 412380 378122 180801
832349672142714624 519224 412443 378102 180824
832349672160896384 519184 412398 378093 180791
832349672179078272 519201 412490 378133 180825
832349672197260032 519238 412456 378083 180862
832349672215441920 519153 412360 378098 180841
832349672233623680 519204 412374 378105 180821
832349672251805568 519203 412393 378158 180821
832349672269987328 519134 412370 378139 180731
832349672288169216 519185 412354 378107 180777
832349672306350976 519201 412418 378134 180846
832349672324532736 519196 412457 378160 180848
832349672342714624 519207 412437 378174 180816
832349672360896384 519188 412409 378142 180849
832349672379078272 519153 412436 378143 180814
832349672397260032 519225 412413 378176 180843
832349672415441920 519171 412374 378092 180796
832349672433623680 519180 412407 378123 180851
832349672451805568 519129 412362 378141 180819
832349672469987328 519194 412427 378166 180800
832349672488169216 519178 412420 378147 180841
832349672506350976 519188 412417 378142 180819
832349672524532736 519207 412429 378166 180853
832349672542714624 519174 412422 378141 180822
832349672560896384 519168 412447 378209 180863
832349672579078272 519238 412453 378153 180850
832349672597260032 519216 412448 378214 180840
832349672615441920 519157 412393 378158 180796
832349672633623680 519122 412359 378132 180760
832349672651805568 519191 412525 378110 180849
832349672669987328 519161 412445 378122 180884
832349672688169216 519150 412448 378140 180876
832349672706350976 519223 412449 378197 180894
832349672724532736 519212 412386 378140 180829
832349672742714624 519206 412443 378176 180819
832349672760896384 519147 412472 378140 180823
832349672779078272 519186 412381 378151 180819
832349672797260032 519165 412370 378112 180791
832349672815441920 519220 412412 378166 180850
832349672833623680 519215 412410 378197 180801
832349672851805568 519290 412424 378147 180858
832349672869987328 519278 412386 378113 180875
832349672888169216 519177 412353 378109 180800
832349672906350976 519161 412397 378118 180811
832349672924532736 519194 412446 378130 180856
832349672942714624 519200 412465 378125 180854
832349672960896414 519216 412463 378178 180802
832349672979111680 519228 412419 378114 180723
832349672997326976 519150 412442 378127 180783
832349673015542144 519203 412390 378100 180816
832349673033757440 519185 412442 378190 180830
832349673051972736 519209 412404 378201 180797
832349673070187904 519139 412387 378134 180753
832349673088403200 519148 412412 378177 180824
832349673106618496 519161 412453 378142 180833
832349673124833664 519223 412454 378169 180852
832349673143048960 519214 412456 378225 180816
832349673161264256 519136 412349 378131 180815
832349673179479424 519207 412388 378162 180845
832349673197694720 519154 412392 378158 180843
832349673215910016 519154 412391 378087 180818
832349673234125312 519163 412423 378125 180894
832349673252340480 519224 412434 378158 180883
832349673270555776 519190 412487 378213 180837
832349673288771072 519148 412424 378113 180781
832349673306986240 519150 412412 378119 180808
832349673325201536 519203 412411 378113 180857
832349673343416832 519169 412376 378183 180849
832349673361632000 519253 412422 378126 180821
832349673379847296 519194 412409 378170 180824
832349673398062592 519247 412415 378144 180830
832349673416277760 519208 412471 378224 180858
832349673434493056 519186 412448 378173 180826
832349673452708352 519179 412419 378217 180836
832349673470923520 519134 412413 378195 180773
832349673489138816 519190 412441 378208 180872
832349673507354112 519207 412436 378152 180855
832349673525569280 519149 412396 378117 180780
832349673543784576 519239 412441 378168 180836
832349673561999872 519167 412426 378112 180822
832349673580215040 519213 412485 378163 180880
832349673598430336 519202 412441 378193 180896
832349673616645632 519228 412440 378157 180889
832349673634860928 519173 412374 378181 180875
832349673653076096 519162 412419 378131 180829
832349673671291392 519177 412441 378141 180839
832349673689506688 519229 412396 378118 180842
832349673707721856 519121 412372 378100 180832
832349673725937152 519162 412408 378140 180833
832349673744152448 519179 412495 378153 180817
832349673762367616 519143 412392 378107 180841
832349673780582912 519201 412444 378145 180889
832349673798798208 519128 412389 378102 180871
832349673817013376 519212 412440 378088 180876
832349673835228672 519230 412493 378209 180870
832349673853443968 519170 412432 378184 180840
832349673871659136 519110 412417 378136 180837
832349673889874432 519148 412486 378193 180896
832349673908089686 519137 412414 378167 180888
832349673926304384 519229 412406 378176 180855
832349673944519040 519232 412447 378197 180865
832349673962733696 519241 412421 378169 180802
832349673980948352 519234 412420 378145 180871
832349673999163008 519228 412436 378130 180891
832349674017377664 519216 412413 378070 180842
832349674035592448 519216 412405 378143 180819
832349674053807104 519187 412420 378178 180836
832349674072021760 519233 412402 378135 180900
832349674090236416 519230 412482 378166 180886
832349674108451072 519164 412448 378135 180813
832349674126665728 519145 412472 378151 180789
832349674144880384 519167 412413 378158 180840
832349674163095040 519178 412476 378117 180880
832349674181309696 519113 412405 378106 180858
832349674199524352 519179 412347 378149 180801
832349674217739136 519213 412395 378122 180868
832349674235953792 519185 412483 378125 180901
832349674254168448 519185 412486 378095 180849
832349674272383104 519148 412430 378099 180791
832349674290597760 519146 412396 378136 180811
832349674308812416 519172 412423 378146 180841
832349674327027072 519165 412448 378126 180854
832349674345241728 519151 412451 378087 180836
832349674363456384 519195 412451 378136 180813
832349674381671040 519204 412445 378112 180833
832349674399885696 519217 412428 378141 180839
832349674418100480 519177 412419 378185 180851
832349674436315136 519184 412430 378163 180885
832349674454529792 519163 412468 378201 180872
832349674472744448 519114 412385 378102 180799
832349674490959104 519139 412446 378106 180820
832349674509173760 519158 412415 378101 180786
832349674527388416 519171 412430 378124 180828
832349674545603072 519228 412472 378186 180855
832349674563817728 519224 412465 378179 180879
832349674582032384 519203 412434 378139 180851
832349674600247168 519123 412425 378111 180805
832349674618461824 519165 412410 378098 180815
832349674636676480 519199 412405 378111 180855
832349674654891136 519238 412430 378109 180849
832349674673105792 519172 412412 378106 180873
832349674691320448 519192 412472 378159 180894
832349674709535104 519139 412432 378134 180862
832349674727749760 519092 412441 378157 180880
832349674745964416 519156 412432 378161 180873
832349674764179072 519170 412437 378169 180888
832349674782393728 519171 412404 378162 180862
832349674800608512 519174 412390 378129 180871
832349674818823098 519165 412346 378158 180812
832349674837036544 519151 412300 378084 180792
832349674855250048 422897 370298 347025 180751
832349674873463680 337014 313670 306052 180748
832349674891677184 299620 289072 288330 180748
832349674909890688 283371 278494 280658 180790
832349674928104320 276236 273833 277294 180785
832349674946317824 273205 271868 275914 180807
832349674964531328 271840 270990 275252 180766
832349674982744832 271339 270607 275001 180877
832349675000958464 271021 270427 274871 180850
832349675019171968 270935 270329 274783 180808
832349675037385472 270915 270372 274845 180830
832349675055599104 270861 270330 274760 180805
832349675073812608 270856 270336 274857 180804
832349675092026112 270847 270328 274834 180809
832349675110239744 270874 270325 274846 180830
832349675128453248 270828 270309 274788 180801
832349675146666752 270828 270353 274765 180796
832349675164880384 270847 270336 274777 180826
832349675183093888 270787 270270 274769 180809
832349675201307392 270756 270275 274746 180758
832349675219521024 270822 270333 274787 180787
832349675237734528 270802 270255 274718 180798
832349675255948032 270809 270271 274738 180834
832349675274161536 270811 270258 274747 180818
832349675292375168 270850 270317 274780 180847
832349675310588672 270801 270271 274751 180739
832349675328802176 270812 270327 274805 180788
832349675347015808 270811 270257 274759 180862
832349675365229312 270839 270276 274774 180803
832349675383442816 270853 270279 274727 180778
832349675401656448 270863 270317 274768 180869
832349675419869952 270793 270314 274779 180799
832349675438083456 270760 270274 274749 180755
832349675456297088 270781 270291 274714 180796
832349675474510592 270833 270254 274758 180820
832349675492724096 270835 270239 274766 180847
832349675510937768 270840 270243 274721 180860
832349675529153152 270801 270279 274709 180785
832349675547368576 270809 270326 274746 180823
832349675565584000 270806 270238 274738 180818
832349675583799296 270747 270305 274745 180783
832349675602014720 270823 270323 274772 180855
832349675620230144 270843 270315 274800 180864
832349675638445568 270817 270267 274776 180780
832349675656660992 270839 270271 274788 180818
832349675674876288 270822 270293 274747 180854
832349675693091712 270856 270265 274758 180828
832349675711307136 270782 270257 274798 180871
832349675729522560 270839 270302 274794 180863
832349675747737984 270822 270316 274833 180795
832349675765953280 270856 270343 274840 180866
832349675784168704 270819 270204 274736 180809
832349675802384128 270788 270238 274716 180803
832349675820599552 270876 270298 274806 180867
832349675838814976 270802 270210 274710 180816
832349675857030272 270819 270235 274772 180797
832349675875245696 270795 270271 274759 180794
832349675893461120 270830 270272 274750 180798
832349675911676544 270852 270245 274757 180815
832349675929891968 270805 270288 274793 180774
832349675948107264 270783 270271 274770 180817
832349675966322688 270779 270277 274752 180792
832349675984538112 270790 270223 274695 180835
832349676002753536 270754 270213 274731 180775
832349676020968960 270779 270270 274751 180770
832349676039184256 270854 270276 274788 180847
832349676057399680 270820 270300 274738 180832
832349676075615104 270791 270227 274737 180795
832349676093830528 270770 270266 274776 180831
832349676112045952 270793 270283 274753 180830
832349676130261248 270775 270262 274764 180815
832349676148476672 270845 270322 274847 180842
832349676166692096 270825 270293 274780 180803
832349676184907520 270816 270321 274770 180824
832349676203122944 270803 270299 274775 180801
832349676221338240 270873 270316 274810 180828
832349676239553664 270865 270307 274760 180821
832349676257769088 270848 270263 274772 180832
832349676275984512 270810 270264 274825 180806
832349676294199808 270774 270209 274764 180762
832349676312415232 270795 270278 274804 180750
832349676330630656 270773 270191 274706 180782
832349676348846080 270794 270241 274774 180789
832349676367061888 270813 270242 274729 180791
832349676385277696 270828 270317 274829 180859
832349676403493376 270824 270319 274749 180846
832349676421709184 270835 270279 274763 180865
832349676439924992 270817 270297 274764 180858
832349676458140800 270861 270299 274803 180783
832349676476356480 270909 270285 274769 180889
832349676494572288 270846 270364 274806 180786
832349676512788096 270841 270282 274767 180809
832349676531003776 270831 270302 274778 180814
832349676549219584 270805 270330 274802 180808
832349676567435392 270806 270287 274768 180803
832349676585651072 270846 270285 274804 180847
832349676603866880 270843 270294 274783 180843
832349676622082688 270834 270281 274765 180836
832349676640298496 270835 270311 274758 180836
832349676658514176 270856 270235 274780 180825
832349676676729984 270852 270277 274783 180845
832349676694945792 270822 270306 274775 180831
832349676713161472 270881 270310 274808 180867
832349676731377280 270846 270304 274783 180853
832349676749593088 270848 270302 274828 180865
832349676767808896 270810 270264 274763 180841
832349676786024576 270836 270254 274751 180803
832349676804240384 270802 270259 274772 180811
832349676822456192 270857 270289 274758 180803
832349676840671872 270765 270285 274741 180815
832349676858887680 270793 270283 274720 180834
832349676877103488 294552 285218 293170 180808
832349676895319168 395076 342909 329230 180875
832349676913534976 460001 379477 354667 180896
832349676931750784 492076 397420 367409 180842
832349676949966592 506933 405725 373342 180835
832349676968182272 513640 409414 375915 180818
832349676986398080 516707 411115 377155 180862
832349677004613812 518027 411788 377635 180858
832349677022828416 518589 412140 377889 180821
832349677041043072 518908 412270 377982 180832
832349677059257728 518952 412353 378008 180760
832349677077472384 519049 412373 378074 180808
832349677095687040 519055 412351 378077 180770
832349677113901696 519131 412328 378151 180788
832349677132116480 519113 412374 378129 180803
832349677150331136 519136 412357 378105 180784
832349677168545792 519143 412407 378088 180802
832349677186760448 519206 412457 378140 180860
832349677204975104 519187 412417 378141 180826
832349677223189760 519219 412413 378165 180847
832349677241404416 519191 412370 378083 180859
832349677259619072 519143 412448 378137 180868
832349677277833728 519148 412346 378095 180796
832349677296048384 519104 412392 378031 180805
832349677314263168 519145 412372 378091 180826
832349677332477824 519181 412381 378115 180809
832349677350692480 519153 412390 378091 180820
832349677368907136 519135 412359 378118 180820
832349677387121792 519135 412384 378073 180839
832349677405336448 519177 412391 378090 180849
832349677423551104 519218 412379 378107 180818
832349677441765760 519241 412404 378109 180823
832349677459980416 519151 412412 378117 180847
832349677478195072 519156 412381 378079 180830
832349677496409728 519128 412432 378117 180799
832349677514624512 519122 412364 378095 180797
832349677532839168 519151 412483 378115 180828
832349677551053824 519116 412428 378097 180815
832349677569268480 519127 412447 378117 180859
832349677587483136 519174 412415 378102 180860
832349677605697792 519169 412384 378102 180836
832349677623912448 519093 412372 378045 180808
832349677642127104 519120 412355 378118 180779
832349677660341760 519117 412349 378090 180806
832349677678556416 519155 412383 378095 180812
832349677696771200 519190 412435 378101 180820
832349677714985856 519157 412395 378084 180874
832349677733200512 519241 412404 378126 180888
832349677751415168 519144 412364 378154 180882
832349677769629824 519173 412367 378084 180859
832349677787844480 519148 412400 378140 180830
832349677806059136 519103 412391 378126 180832
832349677824273792 519138 412414 378139 180839
832349677842488448 519116 412424 378128 180835
832349677860703220 519252 412468 378147 180880
832349677878916992 519156 412431 378078 180842
832349677897130752 519098 412376 378050 180841
832349677915344640 519116 412375 378077 180893
832349677933558400 519124 412449 378096 180871
832349677951772288 519131 412427 378124 180845
832349677969986048 519143 412430 378139 180866
832349677988199936 519187 412442 378076 180837
832349678006413696 519143 412443 378122 180825
832349678024627584 519174 412449 378145 180867
832349678042841344 519220 412446 378120 180873
832349678061055104 519152 412427 378114 180837
832349678079268992 519155 412400 378145 180857
832349678097482752 519152 412409 378127 180836
832349678115696640 519136 412394 378111 180868
832349678133910400 519121 412406 378058 180846
832349678152124288 519137 412442 378113 180834
832349678170338048 519107 412419 378123 180832
832349678188551936 519180 412396 378098 180805
832349678206765696 519141 412396 378077 180822
832349678224979584 519132 412407 378065 180881
832349678243193344 519094 412384 378079 180799
832349678261407104 519076 412397 378058 180770
832349678279620992 519115 412465 378100 180856
832349678297834752 519150 412396 378143 180769
832349678316048640 519093 412388 378123 180820
832349678334262400 519114 412394 378139 180818
832349678352476288 519171 412406 378162 180842
832349678370690048 519150 412440 378147 180871
832349678388903936 519187 412429 378169 180875
832349678407117696 519161 412415 378112 180884
832349678425331456 519163 412464 378100 180845
832349678443545344 519156 412393 378100 180849
832349678461759104 519161 412434 378137 180880
832349678479972992 519172 412466 378075 180832
832349678498186752 519140 412406 378091 180801
832349678516400640 519169 412464 378114 180823
832349678534614400 519198 412401 378133 180869
832349678552828288 519086 412375 378134 180785
832349678571042048 519152 412406 378166 180850
832349678589255808 519129 412438 378140 180897
832349678607469696 519120 412408 378122 180839
832349678625683456 519119 412434 378141 180855
832349678643897344 519143 412422 378134 180880
832349678662111104 519094 412387 378114 180872
832349678680324992 519129 412413 378131 180811
832349678698538752 519111 412446 378092 180887
832349678716752640 519157 412456 378153 180894
832349678734966400 519139 412417 378118 180894
832349678753180288 519133 412383 378107 180829
832349678771394048 519090 412371 378093 180874
832349678789607808 519149 412443 378081 180833
832349678807821722 519118 412413 378072 180848
832349678826034304 519140 412456 378116 180840
832349678844246912 519164 412475 378108 180832
832349678862459520 519116 412457 378080 180840
832349678880672128 519105 412420 378088 180849
832349678898884736 519111 412377 378131 180824
832349678917097472 519129 412406 378092 180831
832349678935310080 519098 412456 378100 180807
832349678953522688 519115 412405 378074 180857
832349678971735296 519043 412381 378068 180822
832349678989947904 519094 412424 378105 180840
832349679008160512 519054 412370 378076 180828
832349679026373120 519058 412379 378027 180866
832349679044585728 519053 412466 378076 180870
832349679062798464 519042 412403 378040 180838
832349679081011072 519078 412343 378064 180780
832349679099223680 519076 412402 378114 180808
832349679117436288 519073 412408 378109 180848
832349679135648896 519143 412415 378136 180835
832349679153861504 519078 412389 378136 180814
832349679172074112 519081 412441 378098 180837
832349679190286720 519029 412431 378128 180882
832349679208499328 519115 412388 378081 180900
832349679226712064 519089 412414 378082 180933
832349679244924672 519086 412395 378110 180860
832349679263137280 519115 412400 378117 180919
832349679281349888 519080 412394 378102 180845
832349679299562496 519070 412366 378084 180822
832349679317775104 519042 412368 378113 180865
832349679335987712 519051 412353 378082 180825
832349679354200320 519005 412349 378089 180858
832349679372412928 519012 412320 378102 180840
832349679390625664 519049 412344 378102 180891
832349679408838272 519089 412360 378164 180888
832349679427050880 519162 412451 378212 180864
832349679445263488 519107 412376 378080 180836
832349679463476096 519072 412394 378037 180797
832349679481688704 519067 412394 378108 180814
832349679499901312 519056 412301 378101 180788
832349679518113920 519110 412385 378152 180850
832349679536326656 519089 412380 378127 180808
832349679554539264 519033 412396 378089 180836
832349679572751872 519053 412385 378124 180823
832349679590964480 519071 412405 378044 180825
832349679609177088 519110 412362 378120 180867
832349679627389696 519100 412419 378092 180816
832349679645602304 519048 412328 378040 180777
832349679663814996 519126 412395 378091 180803
832349679682027520 519169 412402 378123 180855
832349679700240000 518994 412291 377999 180757
832349679718452352 519061 412320 378037 180822
832349679736664832 519095 412423 378095 180808
832349679754877184 519101 412396 378092 180788
832349679773089664 519098 412404 378072 180795
832349679791302016 519104 412387 378111 180860
832349679809514496 519080 412328 378014 180830
832349679827726976 519083 412392 378090 180825
832349679845939328 519033 412356 378088 180820
832349679864151808 519076 412332 378062 180877
832349679882364160 519050 412358 378114 180873
832349679900576640 518995 412324 378061 180840
832349679918788992 518974 412337 378059 180829
832349679937001472 518968 412317 377970 180777
832349679955213824 518974 412349 378003 180812
832349679973426304 518939 412321 378007 180851
832349679991638784 518970 412355 378071 180819
832349680009851136 518911 412334 378013 180834
832349680028063616 518979 412247 378042 180859
832349680046275968 518865 412249 378036 180791
832349680064488448 518940 412289 378038 180845
832349680082700800 518911 412340 378038 180848
832349680100913280 518952 412304 378014 180834
832349680119125760 518968 412311 377980 180842
832349680137338112 518991 412321 378051 180800
832349680155550592 518967 412359 378003 180871
832349680173762944 518964 412364 378067 180819
832349680191975424 518945 412299 378097 180843
832349680210187776 518898 412313 378050 180838
832349680228400256 518930 412308 378011 180838
832349680246612736 518925 412277 378051 180811
832349680264825088 518938 412286 378021 180817
832349680283037568 518966 412324 378023 180857
832349680301249920 518966 412321 378032 180822
832349680319462400 518914 412289 378028 180829
832349680337674752 518899 412310 378060 180863
832349680355887232 518918 412258 378072 180813
832349680374099712 518938 412233 378011 180805
832349680392312064 518927 412349 378044 180815
832349680410524544 518948 412299 378065 180796
832349680428736896 518992 412354 378106 180901
832349680446949376 518900 412332 377999 180852
832349680465161728 518864 412307 378049 180828
832349680483374208 518942 412350 378099 180852
832349680501586560 518916 412330 378090 180880
832349680519799040 518957 412363 378083 180898
832349680538011520 518908 412369 378112 180881
832349680556223872 518941 412347 378111 180865
832349680574436352 518986 412359 378105 180850
832349680592648642 518947 412344 378050 180846
832349680610862208 518940 412298 378053 180845
832349680629075712 518981 412396 378029 180851
832349680647289216 518887 412362 378045 180834
832349680665502720 518914 412283 378023 180847
832349680683716352 518907 412299 378057 180915
832349680701929856 518917 412296 378056 180871
832349680720143360 518964 412312 378022 180868
832349680738356864 518948 412319 377965 180798
832349680756570368 518976 412354 378080 180881
832349680774783872 518985 412349 378053 180823
832349680792997504 518950 412284 378015 180843
832349680811211008 518952 412291 378073 180852
832349680829424512 518925 412257 378058 180848
832349680847638016 518945 412253 378067 180858
832349680865851520 519014 412302 378125 180863
832349680884065024 518965 412265 378100 180834
832349680902278528 518836 412213 377964 180850
832349680920492160 518846 412277 378033 180853
832349680938705664 518800 412288 378053 180881
832349680956919168 518742 412231 377979 180830
832349680975132672 518743 412255 377988 180851
832349680993346176 518701 412257 377992 180841
832349681011559680 518723 412234 378007 180848
832349681029773312 518702 412192 377951 180832
832349681047986816 518680 412153 377894 180842
832349681066200320 518709 412208 377938 180842
832349681084413824 518715 412132 377934 180843
832349681102627328 518740 412184 377997 180832
832349681120840832 518754 412141 378011 180909
832349681139054464 518694 412154 377969 180834
832349681157267968 518673 412183 377968 180845
832349681175481472 518718 412217 377976 180855
832349681193694976 518712 412189 377897 180832
832349681211908480 518749 412249 378025 180836
832349681230121984 518727 412202 377947 180769
832349681248335488 518729 412192 377936 180811
832349681266549120 518729 412130 377917 180834
832349681284762624 518726 412205 377940 180889
832349681302976128 518771 412214 377959 180853
832349681321189632 518792 412217 377972 180874
832349681339403136 518831 412233 378038 180874
832349681357616640 518766 412183 377957 180854
832349681375830272 518760 412202 377914 180808
832349681394043692 518731 412147 377946 180803
832349681412257792 518665 412159 377914 180865
832349681430471936 518688 412169 377962 180835
832349681448685952 518735 412219 377966 180873
832349681466900096 518697 412203 377971 180856
832349681485114112 518648 412261 377990 180814
832349681503328256 518711 412225 377979 180792
832349681521542272 518705 412185 377940 180792
832349681539756416 518757 412215 378034 180824
832349681557970432 518752 412175 377992 180819
832349681576184576 518737 412167 377961 180773
832349681594398592 518715 412173 377982 180767
832349681612612736 518687 412182 377938 180763
832349681630826752 518756 412243 377983 180824
832349681649040896 518725 412218 377988 180829
832349681667254912 518703 412179 377937 180788
832349681685469056 518691 412214 377940 180849
832349681703683072 518722 412218 378003 180852
832349681721897216 518763 412219 377990 180849
832349681740111360 518740 412175 377991 180819
832349681758325376 518723 412219 377968 180852
832349681776539520 518678 412180 377942 180832
832349681794753536 518785 412190 378007 180916
832349681812967680 518702 412172 377918 180812
832349681831181696 518704 412156 377940 180803
832349681849395840 518711 412162 378022 180825
832349681867609856 518720 412225 378014 180868
832349681885824000 518744 412248 378031 180867
832349681904038016 518641 412176 377953 180857
832349681922252160 518646 412116 377884 180806
832349681940466176 518457 412132 377901 180850
832349681958680320 518379 412091 377814 180825
832349681976894336 518359 412029 377834 180863
832349681995108480 518363 412027 377892 180803
832349682013322496 518359 411995 377798 180828
832349682031536640 518401 412070 377846 180822
832349682049750784 518358 412068 377784 180881
832349682067964800 518409 412045 377864 180881
832349682086178944 518398 412095 377875 180823
832349682104392960 518358 412032 377841 180829
832349682122607104 518373 412070 377842 180837
832349682140821120 518421 412071 377839 180951
832349682159035264 518403 412046 377805 180865
832349682177249280 518387 412036 377792 180823
832349682195463424 518392 412036 377858 180816
832349682213677440 518376 412064 377850 180880
832349682231891584 518379 412020 377783 180864
832349682250105632 518346 412054 377878 180894
832349682268320256 518365 412005 377825 180866
832349682286534912 518317 412004 377826 180858
832349682304749440 518322 411977 377791 180791
832349682322964096 518324 412011 377790 180884
832349682341178624 518343 411968 377809 180880
832349682359393280 518389 412011 377823 180809
832349682377607936 518360 411981 377858 180836
832349682395822464 518331 411952 377811 180834
832349682414037120 518379 412036 377806 180820
832349682432251648 518339 412013 377869 180853
832349682450466304 518352 412073 377827 180835
832349682468680960 518339 411996 377761 180854
832349682486895488 518308 412004 377771 180865
832349682505110144 518294 412038 377799 180852
832349682523324672 518389 412056 377797 180892
832349682541539328 518422 412028 377849 180869
832349682559753984 518440 411988 377827 180851
832349682577968512 518370 412009 377821 180867
832349682596183168 518319 412018 377839 180876
832349682614397696 518310 411983 377827 180821
832349682632612352 518286 412019 377814 180880
832349682650827008 518355 412077 377896 180872
832349682669041536 518401 412068 377922 180906
832349682687256192 518373 412008 377833 180848
832349682705470720 518361 412010 377854 180847
832349682723685376 518386 412014 377906 180838
832349682741900032 518395 412043 377867 180880
832349682760114560 518369 412061 377821 180824
832349682778329216 518382 412046 377873 180837
832349682796543744 518359 412028 377869 180864
832349682814758400 518267 411979 377756 180774
832349682832973056 518270 411980 377784 180768
832349682851187584 518351 411977 377792 180862
832349682869402240 518333 411953 377757 180833
832349682887616768 518327 412049 377800 180808
832349682905831424 518311 411994 377759 180818
832349682924046080 518145 411879 377715 180882
832349682942260608 517940 411766 377656 180830
832349682960475264 517790 411712 377572 180818
832349682978689792 517730 411709 377579 180819
832349682996904448 517696 411656 377603 180870
832349683015119104 517725 411695 377595 180857
832349683033333632 517725 411607 377493 180773
832349683051548288 517656 411636 377498 180835
832349683069762816 517677 411698 377510 180836
832349683087977472 517619 411660 377526 180796
832349683106192128 517668 411657 377514 180830
832349683124406664 517691 411673 377556 180824
832349683142621312 517699 411706 377564 180893
832349683160835968 517649 411636 377561 180850
832349683179050624 517613 411662 377526 180869
832349683197265280 517717 411659 377621 180855
832349683215479936 517688 411625 377568 180832
832349683233694592 517741 411626 377539 180839
832349683251909376 517723 411653 377559 180809
832349683270124032 517693 411641 377516 180770
832349683288338688 517636 411661 377493 180804
832349683306553344 517698 411623 377509 180857
832349683324768000 517685 411661 377554 180799
832349683342982656 517650 411643 377518 180855
832349683361197312 517644 411709 377570 180858
832349683379411968 517744 411663 377522 180873
832349683397626624 517674 411627 377522 180905
832349683415841280 517604 411620 377471 180862
832349683434056064 517679 411677 377601 180887
832349683452270720 517694 411694 377599 180862
832349683470485376 517650 411692 377534 180834
832349683488700032 517669 411661 377537 180838
832349683506914688 517698 411646 377510 180826
832349683525129344 517656 411642 377571 180845
832349683543344000 517636 411617 377507 180853
832349683561558656 517600 411629 377519 180823
832349683579773312 517620 411627 377515 180842
832349683597987968 517661 411624 377538 180838
832349683616202624 517653 411652 377621 180856
832349683634417408 517651 411644 377569 180872
832349683652632064 517643 411743 377568 180881
832349683670846720 517652 411650 377508 180811
832349683689061376 517613 411676 377516 180819
832349683707276032 517693 411731 377532 180877
832349683725490688 517635 411651 377465 180822
832349683743705344 517713 411690 377530 180831
832349683761920000 517668 411613 377509 180843
832349683780134656 517727 411657 377534 180897
832349683798349312 517661 411640 377522 180845
832349683816564096 517676 411672 377548 180851
832349683834778752 517648 411635 377500 180826
832349683852993408 517693 411675 377528 180821
832349683871208064 517721 411710 377578 180896
832349683889422720 517682 411652 377584 180864
832349683907637376 517616 411583 377539 180831
832349683925852068 517303 411453 377420 180842
832349683944066688 516972 411291 377271 180846
832349683962281344 516737 411210 377153 180884
832349683980496000 516607 411111 377111 180884
832349683998710656 516524 411027 377052 180867
832349684016925312 516499 410968 377026 180873
832349684035139968 516394 411028 376975 180867
832349684053354752 516404 410987 377016 180875
832349684071569408 516348 411003 377019 180863
832349684089784064 516321 411057 377031 180881
832349684107998720 516354 411045 376969 180841
832349684126213376 516353 411011 376968 180900
832349684144428032 516400 411035 377002 180891
832349684162642688 516347 411016 376958 180858
832349684180857344 516315 410979 376946 180818
832349684199072000 516392 410995 376973 180876
832349684217286656 516347 410977 377014 180879
832349684235501440 516391 410986 377043 180913
832349684253716096 516388 410965 377051 180887
832349684271930752 516354 411006 376974 180856
832349684290145408 516314 410942 377021 180862
832349684308360064 516338 410960 376989 180850
832349684326574720 516317 410993 377045 180915
832349684344789376 516331 411004 377024 180875
832349684363004032 516332 410995 376958 180841
832349684381218688 516349 410974 376999 180832
832349684399433344 516277 410991 376976 180825
832349684417648000 516348 410968 376992 180872
832349684435862784 516355 410999 376996 180837
832349684454077440 516407 410965 377048 180890
832349684472292096 516410 410985 377017 180831
832349684490506752 516388 411037 377002 180855
832349684508721408 516356 410972 377023 180883
832349684526936064 516330 410969 377024 180854
832349684545150720 516364 411022 376987 180864
832349684563365376 516404 411002 377003 180889
832349684581580032 516328 410977 377014 180876
832349684599794688 516338 411002 377066 180853
832349684618009472 516309 410990 376982 180848
832349684636224128 516359 411007 376971 180831
832349684654438784 516382 410956 376997 180833
832349684672653440 516389 411024 377010 180876
832349684690868096 516331 410937 376996 180862
832349684709082752 516299 411002 377026 180906
832349684727297408 516303 410973 376992 180850
832349684745512064 516347 410997 377015 180899
832349684763726720 516230 410918 376919 180829
832349684781941376 516326 410967 377009 180818
832349684800156032 516359 410992 377071 180887
832349684818370812 516375 410998 377052 180884
832349684836585472 516367 411016 377089 180885
832349684854800128 516296 411028 377017 180823
832349684873014784 516328 410996 377041 180772
832349684891229440 516278 410952 376984 180769
832349684909444096 516280 410928 376948 180809
832349684927658752 515648 410564 376719 180812
832349684945873536 515067 410343 376450 180772
832349684964088192 514507 410003 376202 180806
832349684982302848 514144 409747 376015 180828
832349685000517504 513893 409676 375901 180868
832349685018732160 513645 409573 375826 180858
832349685036946816 513516 409535 375719 180840
832349685055161472 513399 409485 375708 180836
832349685073376128 513320 409381 375683 180802
832349685091590784 513282 409404 375660 180794
832349685109805440 513211 409375 375634 180803
832349685128020224 513233 409368 375675 180838
832349685146234880 513141 409264 375607 180797
832349685164449536 513188 409291 375662 180845
832349685182664192 513211 409321 375656 180845
832349685200878848 513202 409330 375640 180815
832349685219093504 513126 409276 375603 180800
832349685237308160 513207 409323 375637 180798
832349685255522816 513267 409279 375615 180835
832349685273737472 513220 409348 375620 180857
832349685291952128 513225 409339 375638 180812
832349685310166912 513200 409376 375639 180868
832349685328381568 513233 409370 375640 180781
832349685346596224 513242 409357 375670 180859
832349685364810880 513230 409331 375618 180869
832349685383025536 513214 409369 375644 180856
832349685401240192 513154 409314 375627 180881
832349685419454848 513208 409348 375659 180816
832349685437669504 513193 409275 375614 180857
832349685455884160 513286 409323 375625 180917
832349685474098816 513252 409337 375682 180913
832349685492313472 513219 409315 375601 180850
832349685510528256 513198 409276 375579 180863
832349685528742912 513236 409281 375651 180897
832349685546957568 513257 409271 375617 180853
832349685565172218 513249 409319 375651 180815
832349685583385344 513251 409331 375645 180837
832349685601598464 513213 409357 375686 180870
832349685619811584 513188 409305 375557 180814
832349685638024832 513236 409373 375633 180851
832349685656237952 513235 409360 375633 180767
832349685674451072 513208 409355 375618 180868
832349685692664192 513196 409309 375607 180869
832349685710877312 513186 409391 375619 180888
832349685729090432 513164 409391 375622 180835
832349685747303680 513250 409351 375682 180869
832349685765516800 513211 409310 375624 180836
832349685783729920 513227 409327 375652 180856
832349685801943040 513168 409316 375644 180846
832349685820156160 513260 409313 375608 180889
832349685838369280 513236 409358 375621 180852
832349685856582528 513217 409314 375634 180890
832349685874795648 513254 409375 375672 180885
832349685893008768 513278 409326 375735 180890
832349685911221888 513227 409330 375652 180847
832349685929435008 512048 408778 375106 180809
832349685947648128 510589 407966 374461 180773
832349685965861376 509218 407175 373808 180804
832349685984074496 508089 406583 373307 180865
832349686002287616 507116 406029 372885 180821
832349686020500736 506449 405678 372584 180818
832349686038713856 505939 405427 372312 180836
832349686056927104 505515 405299 372150 180822
832349686075140224 505248 405153 372069 180800
832349686093353344 505079 405074 371985 180816
832349686111566464 505013 404951 371895 180804
832349686129779584 504910 404876 371851 180846
832349686147992704 504834 404899 371884 180823
832349686166205952 504755 404817 371754 180822
832349686184419072 504773 404876 371778 180884
832349686202632192 504692 404813 371689 180833
832349686220845338 504737 404765 371749 180876
832349686239059072 504703 404848 371775 180818
832349686257272832 504641 404822 371786 180811
832349686275486720 504743 404853 371829 180835
832349686293700480 504719 404851 371814 180843
832349686311914240 504744 404824 371782 180856
832349686330128000 504692 404788 371808 180828
832349686348341888 504695 404812 371839 180818
832349686366555648 504669 404832 371809 180818
832349686384769408 504637 404831 371764 180848
832349686402983296 504695 404848 371787 180863
832349686421197056 504642 404865 371765 180888
832349686439410816 504687 404867 371742 180859
832349686457624576 504727 404802 371763 180882
832349686475838464 504713 404796 371770 180866
832349686494052224 504722 404828 371800 180860
832349686512265984 504782 404865 371758 180858
832349686530479872 504755 404825 371730 180832
832349686548693632 504631 404781 371725 180862
832349686566907392 504676 404759 371710 180856
832349686585121152 504619 404745 371659 180803
832349686603335040 504648 404795 371684 180815
832349686621548800 504661 404786 371759 180828
832349686639762560 504618 404778 371726 180849
832349686657976448 504712 404787 371733 180868
832349686676190208 504668 404754 371751 180856
832349686694403968 504649 404753 371784 180854
832349686712617728 504701 404773 371710 180811
832349686730831616 504640 404771 371763 180799
832349686749045376 504650 404727 371732 180801
832349686767259136 504630 404729 371779 180801
832349686785473024 504634 404732 371754 180863
832349686803686784 504657 404732 371728 180855
832349686821900544 504732 404746 371775 180879
832349686840114304 504667 404760 371754 180846
832349686858328192 504697 404744 371785 180897
832349686876541952 504701 404751 371733 180831
832349686894755712 504709 404819 371735 180845
832349686912969600 504715 404803 371754 180887
832349686931183360 502322 403405 370620 180831
832349686949397120 498707 401538 369038 180855
832349686967610880 495121 399612 367406 180821
832349686985824786 492075 398002 366049 180809
832349687004038016 489608 396771 364927 180801
832349687022251264 487809 395743 364104 180815
832349687040464512 486498 395021 363510 180808
832349687058677632 485511 394510 363022 180806
832349687076890880 484844 394170 362857 180766
832349687095104128 484357 393906 362604 180789
832349687113317376 484072 393740 362460 180836
832349687131530624 483808 393621 362298 180838
832349687149743872 483636 393527 362254 180847
832349687167956992 483542 393438 362219 180848
832349687186170240 483373 393371 362153 180806
832349687204383488 483324 393349 362155 180790
832349687222596736 483281 393309 362139 180876
832349687240809984 483332 393331 362103 180877
832349687259023104 483247 393223 362078 180833
832349687277236352 483253 393328 362077 180811
832349687295449600 483295 393326 362113 180829
832349687313662848 483257 393299 362121 180828
832349687331876096 483219 393284 362085 180800
832349687350089344 483199 393266 362070 180849
832349687368302464 483211 393275 362075 180882
832349687386515712 483230 393315 362113 180848
832349687404728960 483102 393247 362122 180818
832349687422942208 483184 393282 362093 180816
832349687441155456 483180 393218 362067 180881
832349687459368576 483149 393215 362074 180837
832349687477581824 483166 393231 362062 180855
832349687495795072 483111 393197 362078 180808
832349687514008320 483170 393276 362086 180855
832349687532221568 483168 393260 361995 180828
832349687550434816 483179 393251 362067 180887
832349687568647936 483165 393203 362005 180841
832349687586861184 483120 393179 362025 180885
832349687605074432 483129 393202 362019 180837
832349687623287680 483130 393229 362069 180854
832349687641500928 483092 393198 362012 180813
832349687659714106 483184 393286 362042 180852
832349687677927168 483114 393225 362002 180870
832349687696140288 483135 393252 362009 180792
832349687714353408 483171 393300 362067 180899
832349687732566656 483186 393285 362090 180794
832349687750779776 483199 393316 362077 180834
832349687768992896 483120 393278 362120 180826
832349687787206016 483146 393252 362108 180832
832349687805419136 483164 393304 362073 180857
832349687823632256 483116 393239 362042 180859
832349687841845504 483115 393212 362047 180838
832349687860058624 483086 393235 362021 180854
832349687878271744 483052 393184 361971 180766
832349687896484864 483116 393240 362078 180826
832349687914697984 483155 393277 362072 180835
832349687932911104 479534 391394 360482 180831
832349687951124352 472538 387606 357480 180815
832349687969337472 465690 383870 354558 180790
832349687987550592 460133 380915 352238 180837
832349688005763712 456083 378725 350567 180801
832349688023976832 453384 377253 349481 180821
832349688042190080 451532 376291 348730 180823
832349688060403200 450445 375692 348319 180832
832349688078616320 449726 375276 347968 180764
832349688096829440 449290 374982 347843 180801
832349688115042560 449067 374941 347756 180828
832349688133255680 448891 374814 347656 180849
832349688151468928 448762 374798 347680 180834
832349688169682048 448698 374732 347635 180822
832349688187895168 448625 374780 347574 180822
832349688206108382 448570 374677 347529 180868
832349688224320896 448485 374643 347498 180846
832349688242533376 448488 374693 347512 180800
832349688260745728 448417 374597 347417 180802
832349688278958208 448443 374587 347496 180877
832349688297170688 448514 374644 347487 180834
832349688315383040 448442 374599 347506 180856
832349688333595520 448437 374639 347462 180809
832349688351807872 448534 374673 347506 180840
832349688370020352 448561 374667 347517 180858
832349688388232832 448447 374581 347441 180863
832349688406445184 448396 374596 347518 180873
832349688424657664 448311 374542 347455 180812
832349688442870144 448389 374560 347415 180832
832349688461082496 448377 374509 347472 180842
832349688479294976 448364 374607 347498 180851
832349688497507328 448445 374613 347499 180862
832349688515719808 448413 374593 347469 180839
832349688533932288 448448 374607 347479 180823
832349688552144640 448445 374601 347478 180846
832349688570357120 448483 374620 347489 180894
832349688588569600 448411 374531 347479 180883
832349688606781952 448357 374516 347448 180848
832349688624994432 448338 374492 347468 180871
832349688643206784 448301 374521 347411 180834
832349688661419264 448306 374550 347417 180886
832349688679631744 448352 374562 347431 180788
832349688697844096 448386 374611 347445 180781
832349688716056576 448411 374635 347475 180806
832349688734269056 448446 374603 347449 180809
832349688752481408 448460 374627 347477 180847
832349688770693888 448412 374626 347533 180824
832349688788906368 448347 374605 347446 180831
832349688807118720 448314 374542 347402 180843
832349688825331200 448332 374566 347412 180819
832349688843543552 448335 374575 347457 180816
832349688861756032 448320 374527 347462 180858
832349688879968512 448354 374547 347402 180831
832349688898180864 448360 374625 347446 180839
832349688916393344 448334 374593 347454 180847
832349688934605824 448312 374561 347462 180799
832349688952818176 441048 370725 344680 180845
832349688971030656 430953 365283 340842 180805
832349688989242986 422931 360931 337956 180835
832349689007456000 417380 357894 335955 180839
832349689025668992 413950 356031 334777 180870
832349689043881984 411884 354931 334045 180833
832349689062094976 410793 354276 333648 180806
832349689080308096 410182 354034 333527 180876
832349689098521088 409902 353868 333408 180822
832349689116734080 409752 353764 333312 180866
832349689134947072 409656 353723 333296 180926
832349689153160064 409691 353733 333310 180926
832349689171373056 409693 353714 333334 180891
832349689189586176 409579 353724 333356 180873
832349689207799168 409523 353683 333268 180815
832349689226012160 409380 353581 333241 180782
832349689244225152 409293 353558 333197 180834
832349689262438144 409326 353566 333199 180829
832349689280651136 409304 353521 333225 180839
832349689298864128 409309 353540 333214 180824
832349689317077248 409380 353590 333267 180866
832349689335290240 409441 353608 333236 180883
832349689353503232 409467 353596 333282 180851
832349689371716224 409523 353618 333271 180851
832349689389929216 409493 353581 333245 180870
832349689408142208 409409 353566 333189 180829
832349689426355328 409257 353546 333213 180876
832349689444568320 409223 353522 333213 180832
832349689462781312 409301 353488 333206 180852
832349689480994304 409283 353484 333218 180863
832349689499207296 409298 353639 333271 180881
832349689517420288 409358 353576 333278 180854
832349689535633280 409407 353562 333205 180846
832349689553846400 409483 353596 333201 180799
832349689572059392 409473 353597 333201 180821
832349689590272384 409412 353572 333193 180846
832349689608485376 409342 353525 333245 180828
832349689626698394 409234 353457 333192 180826
832349689644910720 409173 353424 333210 180801
832349689663123072 409220 353500 333145 180824
832349689681335424 409254 353484 333179 180846
832349689699547904 409373 353538 333188 180831
832349689717760256 409296 353522 333182 180804
832349689735972608 409325 353503 333183 180792
832349689754184960 409397 353544 333228 180843
832349689772397312 409367 353541 333190 180826
832349689790609792 409305 353556 333207 180848
832349689808822144 409236 353457 333145 180841
832349689827034496 409135 353405 333138 180771
832349689845246848 409153 353389 333172 180817
832349689863459328 409235 353401 333181 180829
832349689881671680 409264 353455 333167 180773
832349689899884032 409315 353536 333231 180816
832349689918096384 409351 353610 333218 180887
832349689936308736 409340 353542 333194 180829
832349689954521216 401857 349582 330836 180832
832349689972733568 391317 343750 327533 180757
832349689990945920 383848 339634 325320 180797
832349690009158272 379223 337116 323959 180753
832349690027370624 376660 335661 323223 180808
832349690045583104 375308 334916 322815 180872
832349690063795456 374510 334496 322580 180864
832349690082007808 374102 334228 322510 180873
832349690100220160 373979 334165 322528 180902
832349690118432640 373998 334204 322537 180882
832349690136644992 373981 334176 322515 180882
832349690154857344 373919 334159 322512 180887
832349690173069696 373935 334158 322447 180848
832349690191282048 373924 334139 322413 180799
832349690209494528 373943 334170 322450 180794
832349690227706880 373895 334148 322378 180855
832349690245919290 373848 334129 322408 180884
832349690264133120 373802 334090 322381 180883
832349690282347008 373825 334049 322424 180916
832349690300560896 373831 334058 322454 180854
832349690318774784 373810 334011 322387 180808
832349690336988800 373816 334098 322399 180768
832349690355202688 373863 334096 322402 180877
832349690373416576 373899 334110 322440 180842
832349690391630464 373928 334171 322414 180816
832349690409844352 373897 334153 322416 180830
832349690428058240 373816 334154 322451 180829
832349690446272128 373757 334089 322391 180822
832349690464486016 373729 334071 322397 180824
832349690482700032 373765 334060 322340 180834
832349690500913920 373763 334049 322388 180815
832349690519127808 373743 334077 322443 180796
832349690537341696 373807 334055 322374 180764
832349690555555584 373892 334075 322401 180850
832349690573769472 373887 334127 322393 180847
832349690591983360 373942 334183 322417 180818
832349690610197376 373834 334132 322423 180830
832349690628411264 373814 334110 322383 180867
832349690646625152 373727 334041 322367 180845
832349690664839040 373598 333996 322357 180857
832349690683052928 373662 333965 322317 180887
832349690701266816 373686 333969 322336 180867
832349690719480704 373681 334000 322397 180828
832349690737694720 373757 334029 322391 180788
832349690755908608 373723 334073 322371 180798
832349690774122496 373842 334142 322453 180801
832349690792336384 373760 334110 322382 180783
832349690810550272 373781 334064 322415 180891
832349690828764160 373700 334039 322396 180899
832349690846978048 373644 333989 322388 180874
832349690865191936 373551 333924 322342 180884
832349690883405952 373618 333917 322374 180836
832349690901619840 373708 333979 322395 180881
832349690919833728 373722 334064 322378 180852
832349690938047616 373690 333985 322384 180787
832349690956261504 367533 330593 320827 180778
832349690974475504 358146 325233 318389 180826
832349690992688640 351751 321536 316836 180842
832349691010901760 348292 319549 316010 180828
832349691029114880 346549 318561 315546 180871
832349691047328128 345657 318077 315361 180814
832349691065541248 345186 317737 315189 180798
832349691083754368 344879 317611 315144 180846
832349691101967488 344697 317489 315107 180818
832349691120180608 344692 317493 315119 180814
832349691138393728 344716 317488 315097 180805
832349691156606976 344775 317537 315114 180842
832349691174820096 344809 317504 315083 180833
832349691193033216 344837 317635 315137 180858
832349691211246336 344877 317571 315162 180839
832349691229459456 344875 317610 315135 180834
832349691247672576 344850 317575 315142 180839
832349691265885824 344688 317510 315117 180842
832349691284098944 344694 317522 315165 180891
832349691302312064 344615 317501 315070 180891
832349691320525184 344638 317494 315121 180828
832349691338738304 344664 317499 315125 180843
832349691356951552 344663 317507 315122 180777
832349691375164672 344703 317512 315164 180864
832349691393377792 344719 317509 315159 180817
832349691411590912 344822 317533 315178 180846
832349691429804032 344874 317614 315196 180899
832349691448017152 344743 317577 315134 180831
832349691466230400 344651 317512 315135 180809
832349691484443520 344651 317487 315122 180825
832349691502656640 344568 317471 315115 180846
832349691520869760 344640 317452 315100 180811
832349691539082880 344667 317485 315082 180870
832349691557296000 344686 317510 315122 180881
832349691575509248 344690 317530 315164 180823
832349691593722368 344724 317508 315209 180822
832349691611935488 344758 317570 315150 180877
832349691630148632 344718 317539 315149 180814
832349691648362112 344670 317539 315099 180875
832349691666575616 344693 317492 315107 180846
832349691684789120 344645 317447 315084 180856
832349691703002624 344609 317404 315037 180809
832349691721216128 344572 317399 315064 180805
832349691739429632 344668 317426 315074 180792
832349691757643136 344705 317455 315117 180809
832349691775856640 344707 317482 315080 180838
832349691794070144 344767 317543 315153 180822
832349691812283648 344833 317550 315122 180798
832349691830497152 344783 317561 315182 180814
832349691848710656 344753 317548 315173 180847
832349691866924160 344663 317462 315131 180813
832349691885137664 344613 317418 315095 180846
832349691903351168 344628 317434 315108 180858
832349691921564672 344657 317433 315122 180819
832349691939778176 344672 317464 315085 180851
832349691957991680 340465 315054 314249 180901
832349691976205184 332756 310337 312509 180865
832349691994418688 327919 307366 311407 180855
832349692012632192 325412 305837 310959 180851
832349692030845696 324221 305069 310679 180856
832349692049059200 323726 304776 310505 180836
832349692067272704 323402 304584 310529 180825
832349692085486208 323233 304499 310427 180839
832349692103699712 323088 304386 310456 180806
832349692121913216 323029 304399 310459 180860
832349692140126720 323056 304292 310416 180830
832349692158340224 323105 304315 310427 180837
832349692176553728 323079 304371 310459 180831
832349692194767232 323063 304382 310411 180864
832349692212980736 323125 304437 310510 180877
832349692231194240 323123 304422 310377 180855
832349692249407744 323143 304440 310463 180788
832349692267621248 323124 304377 310486 180761
832349692285834752 323118 304408 310452 180758
832349692304048256 323036 304400 310489 180819
832349692322261776 322921 304293 310437 180846
832349692340475392 322935 304381 310444 180848
832349692358689024 322985 304319 310407 180875
832349692376902528 323093 304337 310423 180881
832349692395116160 323051 304375 310414 180791
832349692413329792 323066 304413 310439 180804
832349692431543424 323086 304439 310484 180845
832349692449756928 323166 304439 310487 180893
832349692467970560 323102 304421 310456 180902
832349692486184192 323093 304385 310438 180902
832349692504397696 322961 304270 310350 180840
832349692522611328 322974 304298 310444 180838
832349692540824960 322981 304295 310408 180852
832349692559038592 323046 304371 310388 180880
832349692577252096 323034 304396 310390 180908
832349692595465728 323091 304382 310443 180837
832349692613679360 323096 304410 310431 180884
832349692631892992 323171 304497 310415 180853
832349692650106496 323119 304451 310430 180899
832349692668320128 323103 304407 310408 180818
832349692686533760 323011 304349 310387 180823
832349692704747264 322983 304280 310391 180865
832349692722960896 322982 304319 310419 180852
832349692741174528 323057 304366 310421 180863
832349692759388160 323032 304405 310414 180853
832349692777601664 323056 304424 310411 180836
832349692795815296 323099 304429 310429 180854
832349692814028928 323084 304446 310380 180855
832349692832242432 323182 304509 310455 180781
832349692850456064 323150 304469 310456 180809
832349692868669696 323106 304468 310490 180859
832349692886883328 323084 304416 310474 180837
832349692905096832 322966 304355 310421 180839
832349692923310464 322979 304343 310407 180826
832349692941524096 323069 304390 310453 180853
832349692959737600 320786 303007 310065 180889
832349692977951232 314698 299056 308626 180838
832349692996164832 311165 296600 307803 180819
832349693014377984 309418 295465 307390 180788
832349693032591104 308619 295025 307280 180864
832349693050804224 308239 294785 307149 180858
832349693069017472 308108 294615 307142 180853
832349693087230592 308086 294604 307140 180869
832349693105443712 308046 294635 307167 180910
832349693123656832 307953 294546 307169 180830
832349693141869952 307867 294533 307102 180816
832349693160083072 307838 294462 307033 180824
832349693178296320 307885 294501 307025 180826
832349693196509440 307906 294545 307056 180795
832349693214722560 307872 294512 307057 180788
832349693232935680 307996 294575 307132 180738
832349693251148800 307911 294552 307132 180805
832349693269361920 307999 294615 307108 180837
832349693287575168 307959 294588 307051 180808
832349693305788288 307941 294553 307041 180785
832349693324001408 307915 294466 307069 180841
832349693342214528 307800 294454 307041 180753
832349693360427648 307813 294491 307045 180822
832349693378640768 307846 294522 307074 180814
832349693396854016 307886 294520 307068 180841
832349693415067136 307939 294557 307103 180909
832349693433280256 307995 294597 307144 180843
832349693451493376 307966 294618 307110 180871
832349693469706496 308055 294581 307108 180812
832349693487919744 308014 294632 307097 180826
832349693506132864 307978 294615 307122 180845
832349693524345984 307918 294529 307083 180816
832349693542559104 307838 294419 307033 180847
832349693560772224 307871 294575 307105 180860
832349693578985344 307849 294476 307039 180796
832349693597198592 307895 294543 307036 180775
832349693615411712 307910 294505 307094 180841
832349693633624832 307934 294559 307067 180839
832349693651837952 307956 294623 307080 180843
832349693670051072 308012 294646 307087 180857
832349693688264192 308054 294674 307132 180832
832349693706477440 307951 294580 307092 180846
832349693724690560 307899 294532 307081 180841
832349693742903680 307836 294450 307092 180840
832349693761116812 307853 294495 307061 180855
832349693779329920 307884 294558 307097 180847
832349693797543040 307933 294495 307047 180853
832349693815756160 307933 294530 307117 180815
832349693833969408 307910 294501 307010 180826
832349693852182528 307921 294488 307018 180834
832349693870395648 308000 294587 307061 180841
832349693888608768 308032 294625 307119 180858
832349693906821888 308022 294517 307127 180897
832349693925035008 307964 294540 307104 180869
832349693943248256 307878 294453 307062 180865
832349693961461376 307856 294483 307014 180856
832349693979674496 305834 293163 306586 180885
832349693997887616 301758 290278 305426 180864
832349694016100736 299506 288677 304764 180849
832349694034313856 298463 287948 304361 180801
832349694052527104 298030 287669 304298 180911
832349694070740224 297805 287505 304237 180876
832349694088953344 297718 287422 304174 180802
832349694107166464 297703 287351 304150 180805
832349694125379584 297628 287406 304197 180874
832349694143592832 297581 287327 304118 180769
832349694161805952 297579 287342 304113 180875
832349694180019072 297625 287311 304141 180890
832349694198232192 297584 287293 304150 180802
832349694216445312 297634 287352 304135 180800
832349694234658432 297601 287353 304124 180796
832349694252871680 297618 287342 304094 180757
832349694271084800 297625 287373 304106 180879
832349694289297920 297634 287412 304146 180865
832349694307511088 297642 287411 304146 180852
832349694325724160 297640 287384 304133 180881
832349694343937280 297599 287328 304091 180879
832349694362150400 297522 287301 304058 180856
832349694380363648 297495 287352 304127 180848
832349694398576768 297528 287278 304118 180856
832349694416789888 297571 287305 304088 180822
832349694435003008 297604 287359 304116 180822
832349694453216128 297577 287333 304096 180842
832349694471429248 297600 287323 304122 180777
832349694489642496 297672 287364 304147 180800
832349694507855616 297665 287342 304168 180803
832349694526068736 297597 287271 304185 180801
832349694544281856 297552 287288 304154 180836
832349694562494976 297506 287198 304111 180824
832349694580708096 297478 287321 304160 180822
832349694598921344 297542 287311 304122 180842
832349694617134464 297616 287342 304174 180850
832349694635347584 297589 287317 304124 180843
832349694653560704 297577 287361 304113 180794
832349694671773824 297692 287411 304158 180860
832349694689987072 297658 287380 304158 180814
832349694708200192 297632 287350 304157 180882
832349694726413312 297655 287398 304149 180830
832349694744626432 297606 287291 304080 180842
832349694762839552 297521 287287 304107 180800
832349694781052672 297578 287268 304055 180842
832349694799265920 297598 287341 304077 180801
832349694817479040 297642 287325 304142 180850
832349694835692160 297598 287372 304149 180820
832349694853905280 297602 287346 304148 180837
832349694872118400 297624 287381 304157 180832
832349694890331520 297665 287372 304156 180841
832349694908544768 297618 287402 304178 180823
832349694926757888 297577 287317 304096 180821
832349694944971008 297545 287302 304095 180805
832349694963184128 297558 287301 304094 180821
832349694981397248 296842 286844 303834 180808
832349694999610368 293580 284385 302430 180778
832349695017823616 291881 283114 301627 180788
832349695036036784 291189 282663 301330 180838
832349695054249856 290822 282433 301228 180852
832349695072462976 290683 282364 301175 180817
832349695090676096 290606 282334 301177 180829
832349695108889344 290631 282297 301130 180811
832349695127102464 290606 282288 301167 180872
832349695145315584 290596 282294 301194 180850
832349695163528704 290612 282261 301150 180850
832349695181741824 290544 282202 301122 180880
832349695199954944 290454 282162 301050 180825
832349695218168192 290523 282222 301052 180801
832349695236381312 290502 282158 301045 180824
832349695254594432 290500 282231 301041 180842
832349695272807552 290526 282285 301147 180850
832349695291020672 290563 282252 301137 180856
832349695309233792 290570 282225 301091 180914
832349695327447040 290572 282278 301156 180837
832349695345660160 290608 282208 301138 180807
832349695363873280 290502 282196 301064 180756
832349695382086400 290473 282209 301008 180783
832349695400299520 290451 282160 300960 180847
832349695418512640 290528 282189 301025 180839
832349695436725888 290554 282236 301151 180871
832349695454939008 290533 282225 301120 180813
832349695473152128 290580 282217 301102 180846
832349695491365248 290612 282239 301099 180809
832349695509578368 290574 282254 301079 180845
832349695527791616 290604 282262 301101 180848
832349695546004736 290538 282218 301120 180894
832349695564217856 290519 282156 301021 180913
832349695582430976 290491 282149 301057 180889
832349695600644096 290501 282159 301024 180880
832349695618857216 290500 282202 301010 180888
832349695637070464 290486 282189 301048 180838
832349695655283584 290561 282245 301119 180847
832349695673496704 290561 282258 301078 180823
832349695691709824 290572 282215 301125 180813
832349695709922944 290534 282242 301123 180796
832349695728136064 290598 282285 301123 180829
832349695746349312 290584 282296 301134 180797
832349695764562432 290533 282251 301103 180836
832349695782775552 290481 282164 301025 180775
832349695800988672 290544 282239 301097 180806
832349695819201792 290514 282234 301095 180829
832349695837415040 290545 282211 301113 180802
832349695855628160 290591 282223 301097 180829
832349695873841280 290578 282215 301058 180823
832349695892054474 290595 282268 301108 180849
832349695910267648 290614 282284 301124 180788
832349695928480768 290596 282233 301068 180816
832349695946693888 290532 282240 301079 180818
832349695964907136 290559 282209 301048 180823
832349695983120256 290644 282318 301188 180823
832349696001333376 288084 280388 299516 180830
832349696019546496 286708 279476 298635 180887
832349696037759616 286060 278932 298154 180835
832349696055972736 285773 278802 297998 180783
832349696074185984 285760 278770 298030 180833
832349696092399104 285726 278690 298005 180816
832349696110612224 285719 278676 297959 180852
832349696128825344 285696 278660 297914 180788
832349696147038464 285688 278705 297971 180815
832349696165251584 285722 278777 298005 180873
832349696183464832 285691 278698 297976 180813
832349696201677952 285651 278694 297938 180859
832349696219891072 285654 278652 297904 180922
832349696238104192 285627 278658 297913 180817
832349696256317312 285617 278670 297964 180835
832349696274530560 285632 278737 297958 180847
832349696292743680 285637 278678 297990 180843
832349696310956800 285707 278699 298008 180839
832349696329169920 285705 278698 298042 180884
832349696347383040 285709 278642 297969 180833
832349696365596160 285705 278772 298013 180837
832349696383809408 285677 278738 297916 180877
832349696402022528 285614 278669 297938 180858
832349696420235648 285650 278647 297906 180885
832349696438448768 285622 278655 297896 180841
832349696456661888 285644 278661 297914 180868
832349696474875008 285687 278669 297953 180846
832349696493088256 285649 278707 297970 180863
832349696511301376 285624 278675 297909 180835
832349696529514496 285723 278660 297975 180770
832349696547727602 285718 278741 298064 180847
832349696565941376 285722 278707 297993 180867
832349696584155136 285725 278689 297963 180848
832349696602368896 285603 278659 297879 180853
832349696620582784 285599 278653 297875 180871
832349696638796544 285633 278641 297895 180899
832349696657010304 285652 278667 297929 180887
832349696675224064 285687 278692 298000 180854
832349696693437952 285665 278650 297956 180834
832349696711651712 285692 278700 298004 180856
832349696729865472 285699 278736 298037 180911
832349696748079232 285718 278742 297991 180837
832349696766293120 285814 278833 298003 180875
832349696784506880 285721 278760 297929 180845
832349696802720640 285662 278662 297898 180837
832349696820934400 285700 278712 297925 180880
832349696839148288 285645 278594 297963 180808
832349696857362048 285680 278679 297979 180822
832349696875575808 285685 278763 298011 180843
832349696893789568 285723 278754 297991 180849
832349696912003456 285734 278754 298008 180886
832349696930217216 285798 278793 298022 180823
832349696948430976 285737 278781 298040 180889
832349696966644736 285724 278730 297977 180806
832349696984858624 285799 278750 298050 180841
832349697003072384 283999 277494 296418 180853
832349697021286144 282978 276845 295513 180753
832349697039499904 282521 276482 295101 180851
832349697057713792 282295 276355 294893 180812
832349697075927552 282270 276247 294862 180816
832349697094141312 282318 276335 294879 180918
832349697112355072 282305 276352 294866 180854
832349697130568832 282330 276319 294888 180901
832349697148782720 282329 276368 294918 180887
832349697166996480 282322 276375 294925 180877
832349697185210240 282275 276426 294962 180834
832349697203424000 282202 276308 294871 180874
832349697221637888 282264 276304 294854 180819
832349697239851648 282228 276333 294874 180845
832349697258065408 282115 276218 294717 180787
832349697276279238 282235 276273 294832 180863
832349697294491136 282217 276315 294836 180839
832349697312702976 282223 276289 294847 180915
832349697330914816 282210 276243 294815 180816
832349697349126656 282233 276283 294820 180855
832349697367338624 282320 276368 294898 180876
832349697385550464 282203 276302 294844 180866
832349697403762304 282224 276298 294858 180872
832349697421974144 282180 276260 294793 180860
832349697440185984 282200 276334 294802 180881
832349697458397824 282168 276300 294820 180855
832349697476609792 282190 276289 294832 180821
832349697494821632 282226 276262 294888 180928
832349697513033472 282224 276316 294917 180886
832349697531245312 282249 276299 294893 180797
832349697549457152 282256 276372 294879 180891
832349697567668992 282286 276382 294951 180849
832349697585880832 282219 276336 294899 180838
832349697604092800 282208 276342 294896 180881
832349697622304640 282231 276269 294860 180884
832349697640516480 282205 276278 294852 180882
832349697658728320 282201 276263 294819 180904
832349697676940160 282220 276340 294879 180896
832349697695152000 282228 276291 294766 180889
832349697713363840 282244 276322 294844 180877
832349697731575808 282214 276308 294868 180826
832349697749787648 282244 276325 294862 180859
832349697767999488 282268 276330 294860 180879
832349697786211328 282285 276331 294865 180864
832349697804423168 282293 276311 294864 180899
832349697822635008 282250 276262 294835 180845
832349697840846976 282233 276282 294854 180829
832349697859058816 282116 276176 294741 180798
832349697877270656 282201 276290 294869 180838
832349697895482496 282202 276304 294868 180819
832349697913694336 282217 276335 294919 180797
832349697931906176 282218 276287 294915 180864
832349697950118016 282262 276330 294844 180859
832349697968329984 282310 276331 294888 180808
832349697986541824 282358 276397 295011 180843
832349698004753664 281027 275496 293414 180864
832349698022965504 280315 275106 292605 180899
832349698041177344 279969 274888 292222 180903
832349698059389184 279780 274723 292016 180829
832349698077601044 279706 274653 291925 180849
832349698095813504 279680 274634 291883 180779
832349698114025984 279711 274686 291961 180840
832349698132238336 279731 274715 291935 180825
832349698150450816 279724 274712 291937 180851
832349698168663296 279740 274673 291925 180856
832349698186875648 279775 274713 291951 180849
832349698205088128 279739 274713 291920 180833
832349698223300480 279695 274664 291905 180802
832349698241512960 279708 274740 291940 180809
832349698259725440 279703 274677 291868 180845
832349698277937792 279655 274690 291771 180821
832349698296150272 279638 274678 291831 180860
832349698314362752 279720 274701 291926 180828
832349698332575104 279758 274678 291933 180808
832349698350787584 279754 274674 291912 180814
832349698368999936 279751 274663 291914 180853
832349698387212416 279770 274720 291973 180829
832349698405424896 279798 274716 291965 180915
832349698423637248 279724 274657 291917 180871
832349698441849728 279633 274645 291874 180826
832349698460062208 279652 274660 291881 180824
832349698478274560 279658 274607 291763 180821
832349698496487040 279691 274706 291894 180885
832349698514699392 279684 274667 291881 180883
832349698532911872 279734 274686 291936 180826
832349698551124352 279754 274712 291939 180794
832349698569336704 279722 274704 291908 180839
832349698587549184 279699 274652 291925 180830
832349698605761664 279805 274675 292011 180848
832349698623974016 279718 274678 291923 180856
832349698642186496 279740 274677 291916 180852
832349698660398976 279677 274627 291889 180896
832349698678611328 279690 274674 291809 180858
832349698696823808 279794 274676 291926 180876
832349698715036160 279731 274699 291930 180795
832349698733248640 279703 274653 291927 180805
832349698751461120 279743 274658 291951 180875
832349698769673472 279747 274689 291962 180828
832349698787885952 279782 274665 291971 180823
832349698806098432 279748 274675 291982 180800
832349698824310784 279710 274690 291919 180851
832349698842523264 279720 274699 291872 180866
832349698860735648 279647 274618 291843 180839
832349698878947968 279688 274675 291890 180889
832349698897160320 279681 274672 291897 180867
832349698915372672 279706 274673 291915 180847
832349698933584896 279689 274719 291953 180866
832349698951797248 279656 274667 291915 180825
832349698970009600 279754 274660 291943 180852
832349698988221952 279782 274709 291973 180841
832349699006434176 279734 274690 291948 180850
832349699024646528 278757 274104 290494 180820
832349699042858880 278266 273815 289808 180839
832349699061071232 277996 273640 289468 180835
832349699079283584 277885 273611 289364 180855
832349699097495808 277866 273603 289233 180862
832349699115708160 277852 273532 289248 180836
832349699133920512 277813 273568 289256 180819
832349699152132864 277885 273629 289329 180834
832349699170345088 277880 273585 289303 180879
832349699188557440 277807 273577 289289 180852
832349699206769792 277896 273612 289366 180860
832349699224982144 277892 273653 289284 180898
832349699243194496 277864 273657 289263 180852
832349699261406720 277804 273565 289230 180824
832349699279619072 277865 273572 289196 180882
832349699297831424 277822 273525 289200 180817
832349699316043776 277736 273520 289239 180765
832349699334256000 277853 273528 289255 180818
832349699352468352 277813 273581 289290 180796
832349699370680704 277875 273601 289291 180868
832349699388893056 277809 273573 289312 180849
832349699407105408 277885 273580 289317 180822
832349699425317632 277836 273575 289280 180825
832349699443529984 277924 273553 289256 180854
832349699461742336 277887 273563 289268 180854
832349699479954688 277808 273522 289207 180846
832349699498166912 277705 273481 289113 180783
832349699516379264 277784 273508 289216 180790
832349699534591616 277801 273551 289166 180788
832349699552803968 277832 273494 289248 180804
832349699571016320 277879 273594 289258 180840
832349699589228544 277823 273561 289307 180847
832349699607440914 277847 273589 289324 180852
832349699625652736 277887 273550 289244 180821
832349699643864576 277770 273574 289178 180745
832349699662076544 277840 273591 289256 180836
832349699680288384 277808 273468 289156 180865
832349699698500224 277835 273445 289212 180877
832349699716712192 277833 273492 289264 180870
832349699734924032 277903 273537 289271 180889
832349699753135872 277919 273614 289281 180854
832349699771347840 277864 273614 289297 180849
832349699789559680 277883 273583 289284 180872
832349699807771520 277935 273614 289366 180857
832349699825983488 277879 273587 289279 180833
832349699844195328 277848 273563 289270 180857
832349699862407168 277849 273466 289246 180869
832349699880619136 277856 273546 289218 180857
832349699898830976 277821 273560 289206 180816
832349699917042816 277872 273555 289255 180859
832349699935254784 277860 273582 289319 180856
832349699953466624 277890 273551 289289 180835
832349699971678464 277802 273463 289243 180765
832349699989890432 277814 273500 289252 180819
832349700008102272 277907 273573 289315 180811
832349700026314112 277119 273139 288095 180797
832349700044526080 276702 272902 287449 180749
832349700062737920 276591 272945 287220 180787
832349700080949760 276469 272874 287033 180873
832349700099161728 276449 272825 286949 180842
832349700117373568 276398 272771 286881 180849
832349700135585408 276348 272723 286924 180833
832349700153797248 276418 272723 286977 180839
832349700172009216 276436 272745 286945 180832
832349700190221056 276419 272797 286993 180774
832349700208432896 276367 272705 286960 180806
832349700226644864 276416 272735 286976 180816
832349700244856704 276468 272744 287020 180839
832349700263068544 276418 272784 286991 180797
832349700281280512 276406 272767 286978 180856
832349700299492352 276307 272739 286877 180840
832349700317704192 276338 272787 286873 180786
832349700335916160 276376 272787 286916 180767
832349700354128000 276363 272793 286969 180790
832349700372339840 276420 272764 286988 180822
832349700390551808 276417 272804 286966 180803
832349700408763648 276423 272790 286948 180782
832349700426975488 276381 272735 286945 180820
832349700445187480 276379 272736 286944 180816
832349700463400576 276342 272745 286864 180753
832349700481613696 276305 272675 286808 180735
832349700499826816 276288 272713 286833 180739
832349700518040064 276345 272724 286878 180822
832349700536253184 276351 272684 286891 180852
832349700554466304 276381 272734 286898 180814
832349700572679424 276310 272668 286872 180714
832349700590892544 276356 272722 286888 180798
832349700609105664 276385 272721 286883 180806
832349700627318912 276391 272756 286945 180761
832349700645532032 276396 272673 286968 180780
832349700663745152 276376 272755 286949 180774
832349700681958272 276392 272752 286937 180751
832349700700171392 276367 272696 286856 180778
832349700718384512 276352 272739 286873 180811
832349700736597760 276373 272694 286901 180766
832349700754810880 276380 272737 286906 180721
832349700773024000 276412 272736 286927 180833
832349700791237120 276424 272683 286940 180832
832349700809450240 276409 272710 286892 180824
832349700827663360 276450 272796 287010 180817
832349700845876608 276393 272798 287008 180802
832349700864089728 276369 272751 286908 180735
832349700882302848 276371 272699 286859 180773
832349700900515968 276399 272741 286942 180837
832349700918729088 276367 272718 286866 180786
832349700936942336 276340 272732 286894 180802
832349700955155456 276433 272717 286924 180745
832349700973368576 276417 272818 286914 180800
832349700991581696 276385 272759 286936 180770
832349701009794816 276366 272832 286920 180807
832349701028007936 275880 272533 285938 180775
832349701046221184 275538 272354 285388 180772
832349701064434304 275385 272188 285148 180701
832349701082647424 275407 272227 285105 180816
832349701100860544 275369 272205 284991 180811
832349701119073664 275308 272225 284946 180791
832349701137286784 275276 272148 284913 180795
832349701155500032 275281 272151 284821 180777
832349701173713152 275341 272207 284915 180831
832349701191926272 275354 272216 284968 180836
832349701210139460 275323 272202 284937 180823
832349701228353280 275321 272253 285030 180763
832349701246567040 275308 272170 285023 180749
832349701264780800 275364 272223 285068 180839
832349701282994560 275366 272187 285002 180791
832349701301208448 275335 272167 284980 180779
832349701319422208 275338 272190 284987 180799
832349701337635968 275278 272154 284901 180741
832349701355849728 275307 272190 284926 180799
832349701374063488 275305 272185 284913 180761
832349701392277248 275341 272193 284958 180820
832349701410491008 275333 272219 284994 180803
832349701428704896 275343 272176 284955 180809
832349701446918656 275305 272240 285026 180800
832349701465132416 275385 272212 285018 180743
832349701483346176 275339 272230 284961 180748
832349701501559936 275305 272199 284953 180807
832349701519773696 275347 272186 284948 180788
832349701537987456 275300 272188 284914 180801
832349701556201344 275294 272217 284977 180783
832349701574415104 275272 272219 285023 180784
832349701592628864 275350 272239 285046 180829
832349701610842624 275290 272194 285033 180787
832349701629056384 275291 272237 285041 180821
832349701647270144 275337 272212 285012 180811
832349701665483904 275341 272216 285041 180812
832349701683697792 275367 272222 285046 180839
832349701701911552 275333 272238 285016 180781
832349701720125312 275279 272201 284955 180838
832349701738339072 275230 272167 284936 180804
832349701756552832 275306 272276 285001 180867
832349701774766592 275314 272240 285015 180817
832349701792980352 275276 272245 284995 180822
832349701811194240 275345 272213 285031 180852
832349701829408000 275328 272225 284995 180833
832349701847621760 275357 272266 285041 180825
832349701865835520 275329 272201 285050 180806
832349701884049280 275364 272250 285055 180890
832349701902263040 275381 272160 284995 180877
832349701920476800 275385 272223 284965 180888
832349701938690688 275298 272188 284905 180837
832349701956904448 275367 272218 284965 180852
832349701975118208 275345 272166 285005 180814
832349701993331968 275402 272192 285007 180830
832349702011545728 275328 272176 285030 180798
832349702029759488 274932 272065 284271 180855
832349702047973248 274621 271905 283700 180807
832349702066187136 274559 271884 283557 180775
832349702084400818 274525 271862 283446 180837
832349702102613888 274595 271874 283435 180779
832349702120827008 274524 271861 283461 180866
832349702139040128 274481 271831 283360 180839
832349702157253376 274429 271791 283380 180825
832349702175466496 274507 271794 283366 180820
832349702193679616 274487 271796 283345 180807
832349702211892736 274519 271782 283381 180811
832349702230105856 274512 271793 283363 180773
832349702248318976 274524 271882 283391 180805
832349702266532224 274553 271829 283406 180851
832349702284745344 274538 271825 283420 180786
832349702302958464 274533 271832 283417 180805
832349702321171584 274503 271786 283335 180773
832349702339384704 274506 271818 283331 180818
832349702357597824 274430 271844 283318 180797
832349702375811072 274395 271886 283344 180774
832349702394024192 274442 271844 283389 180779
832349702412237312 274433 271830 283436 180790
832349702430450432 274450 271852 283354 180873
832349702448663552 274525 271866 283379 180885
832349702466876672 274504 271843 283457 180838
832349702485089920 274540 271857 283404 180794
832349702503303040 274525 271869 283397 180805
832349702521516160 274502 271789 283377 180816
832349702539729280 274540 271825 283394 180853
832349702557942400 274497 271827 283331 180804
832349702576155648 274490 271786 283278 180814
832349702594368768 274513 271813 283370 180797
832349702612581888 274485 271812 283367 180809
832349702630795008 274482 271895 283367 180840
832349702649008128 274480 271839 283399 180837
832349702667221248 274519 271791 283391 180789
832349702685434496 274490 271869 283404 180832
832349702703647616 274571 271851 283404 180850
832349702721860736 274489 271818 283340 180802
832349702740073856 274548 271834 283374 180889
832349702758286976 274527 271789 283313 180819
832349702776500096 274438 271834 283277 180798
832349702794713344 274442 271817 283332 180744
832349702812926464 274509 271803 283365 180790
832349702831139584 274527 271856 283370 180834
832349702849352704 274525 271854 283370 180785
832349702867565824 274498 271835 283365 180753
832349702885779072 274542 271825 283459 180806
832349702903992192 274577 271827 283388 180826
832349702922205312 274539 271835 283364 180786
832349702940418432 274460 271791 283305 180796
832349702958631650 274524 271794 283289 180839
832349702976844160 274507 271917 283352 180823
832349702995056640 274522 271865 283354 180829
832349703013269120 274438 271823 283379 180804
832349703031481600 274257 271710 282801 180879
832349703049694080 274070 271638 282421 180865
832349703067906560 273876 271564 282158 180848
832349703086119040 273851 271550 282062 180808
832349703104331520 273876 271515 282066 180775
832349703122544000 273862 271515 282053 180746
832349703140756480 273853 271556 282045 180814
832349703158968960 273936 271598 282010 180824
832349703177181440 273826 271521 281953 180786
832349703195393920 273846 271561 281961 180837
832349703213606400 273842 271563 281954 180828
832349703231818880 273887 271557 281992 180833
832349703250031360 273874 271500 282004 180832
832349703268243840 273877 271544 282027 180891
832349703286456320 273870 271521 282014 180869
832349703304668800 273862 271546 282010 180825
832349703322881408 273871 271566 282036 180837
832349703341093888 273908 271577 282013 180820
832349703359306368 273875 271471 281962 180802
832349703377518848 273813 271451 281934 180766
832349703395731328 273828 271536 281953 180794
832349703413943808 273814 271532 282002 180819
832349703432156288 273844 271579 282038 180873
832349703450368768 273882 271593 282020 180925
832349703468581248 273839 271547 281992 180882
832349703486793728 273855 271550 282006 180788
832349703505006208 273906 271555 282029 180833
832349703523218688 273897 271540 282060 180843
832349703541431168 273902 271498 282065 180785
832349703559643648 273864 271555 281980 180770
832349703577856128 273842 271554 281999 180798
832349703596068608 273906 271556 281996 180821
832349703614281088 273895 271558 282028 180801
832349703632493568 273890 271570 282041 180788
832349703650706048 273856 271573 282057 180807
832349703668918528 273930 271620 282033 180818
832349703687131008 273902 271583 282044 180849
832349703705343488 273884 271561 282046 180829
832349703723555968 273873 271547 282083 180800
832349703741768448 273867 271540 282071 180857
832349703759980920 273894 271539 282057 180871
832349703778194048 273795 271578 281985 180840
832349703796407168 273825 271467 281948 180848
832349703814620288 273889 271564 281979 180857
832349703832833408 273873 271621 282032 180886
832349703851046528 273897 271536 282035 180825
832349703869259648 273867 271558 281989 180838
832349703887472768 273859 271515 281960 180821
832349703905685760 273874 271558 282065 180843
832349703923898880 273827 271528 282047 180796
832349703942112000 273847 271529 282014 180830
832349703960325120 273850 271584 282030 180792
832349703978538240 273798 271524 281960 180814
832349703996751360 273845 271552 281970 180845
832349704014964480 273822 271502 281978 180842
832349704033177600 273650 271458 281481 180852
832349704051390720 273456 271410 281147 180773
832349704069603840 273468 271407 281071 180866
832349704087816960 273387 271336 280928 180835
832349704106030080 273406 271306 280951 180839
832349704124243200 273393 271351 280889 180828
832349704142456320 273403 271347 280893 180838
832349704160669312 273322 271354 280872 180816
832349704178882432 273301 271327 280886 180798
832349704197095552 273316 271337 280877 180860
832349704215308672 273316 271274 280834 180820
832349704233521792 273331 271353 280850 180839
832349704251734912 273332 271323 280909 180858
832349704269948032 273355 271322 280929 180845
832349704288161152 273383 271349 280942 180871
832349704306374272 273352 271350 280919 180814
832349704324587392 273335 271269 280852 180826
832349704342800512 273372 271268 280938 180831
832349704361013632 273369 271341 280926 180825
832349704379226752 273316 271282 280843 180830
832349704397439872 273301 271354 280922 180843
832349704415652864 273238 271327 280808 180832
832349704433865984 273299 271319 280872 180848
832349704452079104 273314 271319 280917 180830
832349704470292224 273277 271238 280825 180786
832349704488505344 273297 271319 280922 180808
832349704506718464 273316 271255 280869 180790
832349704524931584 273337 271279 280900 180780
832349704543144704 273372 271331 280927 180808
832349704561357824 273346 271345 280870 180792
832349704579570944 273345 271341 280909 180784
832349704597784064 273345 271323 280893 180823
832349704615997184 273389 271366 280885 180828
832349704634210236 273310 271329 280802 180818
832349704652423296 273338 271286 280872 180809
832349704670636416 273286 271373 280924 180818
832349704688849536 273363 271347 280903 180851
832349704707062784 273361 271354 280910 180843
832349704725275904 273392 271349 280948 180832
832349704743489024 273378 271346 281016 180806
832349704761702144 273327 271319 280923 180811
832349704779915264 273295 271296 280903 180777
832349704798128384 273337 271278 280882 180805
832349704816341632 273305 271372 280859 180828
832349704834554752 273362 271344 280890 180864
832349704852767872 273317 271333 280841 180799
832349704870980992 273311 271333 280874 180822
832349704889194112 273353 271282 280909 180794
832349704907407232 273397 271336 280861 180809
832349704925620480 273405 271327 280900 180788
832349704943833600 273400 271319 280883 180834
832349704962046720 273377 271385 280914 180822
832349704980259840 273326 271311 280873 180795
832349704998472960 273352 271307 280852 180825
832349705016686080 273333 271306 280825 180816
832349705034899328 273310 271310 280742 180832
832349705053112448 273049 271184 280196 180798
832349705071325568 273052 271201 280034 180882
832349705089538688 272984 271184 279988 180850
832349705107751808 272917 271150 279969 180850
832349705125965056 272984 271158 280023 180852
832349705144178176 272955 271125 279987 180817
832349705162391296 272942 271121 279948 180825
832349705180604416 272945 271170 280004 180825
832349705198817536 272945 271155 279990 180796
832349705217030656 272946 271101 279978 180868
832349705235243904 272901 271136 279862 180799
832349705253457024 272881 271165 279842 180801
832349705271670144 272899 271174 279874 180869
832349705289883264 272916 271152 279873 180832
832349705308096384 272945 271155 279944 180868
832349705326309504 272950 271132 279940 180830
832349705344522752 272980 271154 279918 180813
832349705362735872 272958 271131 279916 180783
832349705380949074 272963 271145 279963 180804
832349705399162240 272995 271209 280021 180825
832349705417375360 272969 271104 279965 180841
832349705435588480 272971 271184 279959 180799
832349705453801728 272939 271194 279961 180837
832349705472014848 272946 271242 279974 180909
832349705490227968 272974 271272 279967 180889
832349705508441088 272996 271197 279964 180889
832349705526654208 273008 271167 279941 180840
832349705544867328 272915 271170 279965 180796
832349705563080576 272982 271134 279968 180863
832349705581293696 272917 271171 279945 180877
832349705599506816 272927 271155 279980 180866
832349705617719936 272994 271115 279968 180931
832349705635933056 272892 271157 279924 180826
832349705654146176 272934 271119 279891 180814
832349705672359424 272927 271192 279953 180869
832349705690572544 272951 271143 279935 180872
832349705708785664 272960 271144 279958 180865
832349705726998784 272907 271169 279969 180862
832349705745211904 272893 271121 279989 180803
832349705763425024 272965 271189 280046 180760
832349705781638272 272995 271166 280002 180794
832349705799851392 272972 271165 279934 180843
832349705818064512 272929 271225 279949 180855
832349705836277632 272877 271186 279921 180802
832349705854490752 272852 271165 279915 180751
832349705872704000 272909 271183 279905 180843
832349705890917120 272933 271186 279917 180865
832349705909130240 272923 271171 279995 180872
832349705927343360 272960 271198 279999 180902
832349705945556480 272959 271137 279997 180852
832349705963769600 272985 271215 280041 180860
832349705981982848 273009 271147 280015 180871
832349706000195968 272958 271130 279961 180860
832349706018409088 272968 271157 279980 180856
832349706036622208 273090 271221 280260 180867
832349706054835328 272866 271115 279659 180876
832349706073048448 272663 271034 279313 180866
832349706091261696 272575 271015 279204 180886
832349706109474816 272624 271032 279181 180837
832349706127687936 272569 271038 279160 180809
832349706145901056 272597 271013 279163 180785
832349706164114176 272629 271021 279170 180775
832349706182327424 272639 271054 279167 180815
832349706200540480 272618 271073 279227 180826
832349706218753536 272590 271001 279180 180818
832349706236966656 272575 271011 279140 180852
832349706255179648 272612 271025 279140 180875
832349706273392768 272522 271016 279130 180833
832349706291605888 272560 271030 279117 180824
832349706309818880 272603 271086 279186 180830
832349706328032000 272636 271049 279227 180866
832349706346245120 272629 271078 279164 180792
832349706364458112 272613 271030 279147 180814
832349706382671232 272596 271092 279183 180820
832349706400884352 272593 270992 279171 180836
832349706419097344 272601 270989 279169 180850
832349706437310464 272617 271076 279195 180879
832349706455523584 272600 270999 279138 180828
832349706473736704 272602 270983 279138 180812
832349706491949696 272685 270975 279117 180864
832349706510162816 272664 270998 279233 180875
832349706528375936 272611 271029 279160 180775
832349706546588928 272599 270993 279163 180809
832349706564802048 272585 270939 279140 180840
832349706583015168 272621 270969 279131 180867
832349706601228160 272633 271046 279174 180864
832349706619441280 272618 271051 279156 180877
832349706637654400 272597 271093 279144 180833
832349706655867392 272586 271082 279171 180820
832349706674080512 272559 271052 279136 180808
832349706692293632 272571 271040 279138 180825
832349706710506624 272561 271011 279164 180822
832349706728719744 272587 271000 279166 180898
832349706746932864 272632 271068 279210 180849
832349706765145856 272577 271008 279169 180831
832349706783358976 272643 271041 279166 180874
832349706801572096 272548 271063 279156 180820
832349706819785088 272618 271021 279162 180831
832349706837998208 272619 271022 279122 180794
832349706856211328 272622 271012 279159 180845
832349706874424320 272630 271007 279163 180819
832349706892637440 272598 271047 279202 180834
832349706910850560 272580 271032 279146 180833
832349706929063552 272613 271082 279171 180835
832349706947276672 272652 271054 279153 180870
832349706965489792 272597 271010 279224 180884
832349706983702912 272643 271050 279174 180834
832349707001915904 272673 271058 279234 180846
832349707020129024 272609 271056 279164 180849
832349707038342144 272617 270977 279207 180843
832349707056555136 272425 270974 278823 180857
832349707074768268 272441 270981 278630 180859
832349707092980864 272276 270890 278477 180800
832349707111193472 272291 270891 278478 180797
832349707129406080 272370 270922 278532 180867
832349707147618560 272296 270875 278525 180875
832349707165831168 272343 270897 278606 180870
832349707184043776 272349 270935 278524 180820
832349707202256384 272363 270942 278553 180905
832349707220468992 272337 270886 278554 180817
832349707238681472 272336 270848 278520 180802
832349707256894080 272324 270842 278512 180830
832349707275106688 272359 270843 278484 180847
832349707293319296 272344 270906 278528 180849
832349707311531904 272345 270888 278516 180880
832349707329744384 272263 270927 278520 180819
832349707347956992 272284 270868 278531 180814
832349707366169600 272322 270887 278538 180863
832349707384382208 272345 270872 278576 180874
832349707402594816 272352 270874 278464 180823
832349707420807296 272334 270886 278524 180846
832349707439019904 272320 270869 278530 180794
832349707457232512 272354 270903 278502 180832
832349707475445120 272344 270918 278501 180840
832349707493657600 272324 270905 278503 180814
832349707511870208 272385 270895 278523 180836
832349707530082816 272324 270958 278535 180770
832349707548295424 272417 270949 278541 180839
832349707566508032 272406 270946 278562 180851
832349707584720512 272366 270896 278523 180829
832349707602933120 272389 270940 278539 180840
832349707621145728 272354 270876 278529 180794
832349707639358336 272344 270931 278556 180818
832349707657570944 272305 270914 278503 180824
832349707675783424 272293 270859 278454 180821
832349707693996032 272258 270908 278405 180829
832349707712208640 272267 270881 278418 180858
832349707730421248 272389 270920 278508 180828
832349707748633856 272292 270873 278502 180835
832349707766846336 272323 270932 278557 180843
832349707785058944 272279 270901 278485 180829
832349707803271552 272285 270889 278504 180796
832349707821484160 272353 270929 278524 180825
832349707839696768 272370 270897 278501 180816
832349707857909248 272325 270928 278488 180784
832349707876121856 272332 270931 278426 180808
832349707894334464 272300 270940 278396 180773
832349707912547072 272320 270902 278420 180866
832349707930759680 272381 270937 278478 180806
832349707948972160 272358 270893 278475 180813
832349707967184776 272410 270969 278534 180840
832349707985396736 272361 270925 278533 180826
832349708003608704 272353 270957 278513 180889
832349708021820544 272296 270920 278497 180859
832349708040032512 272349 270956 278588 180853
832349708058244480 272195 270843 278231 180850
832349708076456320 272122 270865 278059 180840
832349708094668288 272139 270855 278017 180849
832349708112880256 272100 270858 277986 180883
832349708131092096 272117 270801 277942 180832
832349708149304064 272151 270887 277910 180856
832349708167516032 272166 270847 277967 180850
832349708185728000 272175 270848 277970 180880
832349708203939840 272150 270864 278044 180879
832349708222151808 272198 270868 277994 180791
832349708240363776 272155 270841 277943 180802
832349708258575616 272109 270877 277986 180872
832349708276787584 272134 270819 278023 180888
832349708294999552 272069 270768 277948 180805
832349708313211392 272089 270807 277882 180834
832349708331423360 272092 270826 277949 180819
832349708349635328 272058 270810 277933 180850
832349708367847168 272084 270859 277986 180866
832349708386059136 272134 270827 278012 180841
832349708404271104 272069 270798 277916 180816
832349708422482944 272085 270847 277971 180837
832349708440694912 272124 270842 277908 180820
832349708458906880 272142 270873 277952 180836
832349708477118848 272064 270785 277946 180824
832349708495330688 272089 270794 277942 180846
832349708513542656 272093 270855 277933 180843
832349708531754624 272114 270848 277945 180856
832349708549966464 272099 270830 278005 180796
832349708568178432 272122 270833 277967 180791
832349708586390400 272167 270772 277987 180890
832349708604602240 272105 270788 277892 180799
832349708622814208 272175 270818 277939 180834
832349708641026176 272099 270769 277933 180802
832349708659238016 272117 270821 278000 180789
832349708677449984 272124 270799 278000 180812
832349708695661952 272137 270837 278023 180850
832349708713873792 272117 270861 278013 180857
832349708732085760 272079 270807 277993 180851
832349708750297728 272096 270816 277997 180874
832349708768509568 272140 270851 278018 180865
832349708786721536 272151 270851 277965 180835
832349708804933504 272188 270841 277950 180859
832349708823145472 272151 270856 277962 180867
832349708841357312 272183 270890 278023 180798
832349708859569238 272167 270854 278036 180845
832349708877778560 272156 270888 277970 180882
832349708895987840 272127 270824 277967 180886
832349708914197120 272164 270848 277944 180833
832349708932406400 272144 270839 277969 180822
832349708950615680 272206 270918 278021 180883
832349708968825088 272161 270862 277986 180855
832349708987034368 272139 270887 277992 180873
832349709005243648 272149 270906 277988 180857
832349709023452928 272160 270903 278011 180941
832349709041662208 272125 270799 277960 180882
832349709059871488 272074 270823 277737 180884
832349709078080768 271967 270745 277579 180879
832349709096290048 271981 270770 277587 180866
832349709114499328 271936 270734 277512 180848
832349709132708736 271919 270760 277482 180859
832349709150918016 271932 270753 277524 180850
832349709169127296 271926 270803 277475 180896
832349709187336576 271913 270768 277538 180845
832349709205545856 271893 270773 277545 180869
832349709223755136 271980 270783 277598 180868
832349709241964416 271979 270748 277542 180843
832349709260173696 271927 270713 277437 180821
832349709278383104 271966 270785 277494 180845
832349709296592384 271985 270743 277511 180886
832349709314801664 271956 270796 277540 180865
832349709333010944 271956 270783 277481 180897
832349709351220224 271923 270825 277493 180901
832349709369429504 271916 270741 277429 180888
832349709387638784 271934 270794 277501 180814
832349709405848064 271923 270791 277502 180808
832349709424057344 271964 270838 277549 180867
832349709442266752 271969 270809 277478 180892
832349709460476032 271915 270731 277476 180803
832349709478685312 271920 270741 277522 180840
832349709496894592 271970 270752 277514 180836
832349709515103872 271888 270792 277531 180849
832349709533313152 271899 270764 277460 180887
832349709551522432 271961 270757 277495 180867
832349709569731712 271901 270730 277429 180817
832349709587940992 271915 270716 277498 180864
832349709606150400 271925 270719 277515 180865
832349709624359680 271987 270792 277539 180920
832349709642568960 272030 270744 277519 180870
832349709660778240 272025 270784 277547 180860
832349709678987520 271984 270727 277563 180840
832349709697196790 271944 270739 277563 180837
832349709715407360 271964 270816 277541 180875
832349709733617920 271917 270745 277484 180871
832349709751828608 271910 270748 277462 180831
832349709770039168 271922 270704 277458 180850
832349709788249856 271949 270700 277456 180841
832349709806460416 271891 270756 277487 180870
832349709824671104 271920 270840 277561 180863
832349709842881664 271886 270799 277450 180775
832349709861092352 271940 270800 277540 180843
832349709879302912 271951 270747 277569 180839
832349709897513600 271948 270747 277529 180825
832349709915724160 271919 270779 277531 180890
832349709933934848 271932 270782 277483 180883
832349709952145408 271939 270754 277493 180896
832349709970356096 271897 270753 277429 180826
832349709988566656 271969 270792 277549 180834
832349710006777344 271937 270813 277513 180854
832349710024987904 271967 270842 277516 180903
832349710043198592 271950 270878 277534 180876
832349710061409152 271850 270765 277268 180795
832349710079619840 271818 270731 277149 180809
832349710097830400 271825 270723 277143 180853
832349710116041088 271818 270685 277064 180794
832349710134251648 271830 270668 277091 180830
832349710152462208 271755 270683 277069 180816
832349710170672896 271757 270689 277017 180863
832349710188883456 271781 270643 277061 180831
832349710207094144 271754 270652 277052 180853
832349710225304704 271793 270641 277070 180814
832349710243515392 271758 270592 277091 180809
832349710261725952 271814 270676 277139 180889
832349710279936640 271839 270688 277110 180868
832349710298147200 271817 270694 277140 180876
832349710316357888 271829 270710 277144 180871
832349710334568448 271735 270651 277080 180790
832349710352779136 271802 270703 277109 180852
832349710370989696 271742 270681 277062 180876
832349710389200384 271730 270752 277041 180841
832349710407410944 271714 270677 277064 180838
832349710425621632 271771 270664 277050 180811
832349710443832192 271810 270752 277078 180845
832349710462042880 271767 270701 277075 180809
832349710480253440 271684 270703 277052 180831
832349710498464128 271796 270696 277084 180866
832349710516674688 271766 270762 277114 180845
832349710534885370 271819 270713 277123 180876
832349710553096960 271775 270673 277078 180858
832349710571308544 271769 270652 277089 180864
832349710589520256 271776 270609 277047 180825
832349710607731840 271788 270675 277085 180879
832349710625943424 271806 270680 277152 180820
832349710644155008 271783 270685 277081 180797
832349710662366720 271796 270652 277081 180755
832349710680578304 271737 270688 277078 180798
832349710698789888 271786 270724 277032 180786
832349710717001472 271790 270730 277154 180862
832349710735213184 271738 270726 277152 180812
832349710753424768 271742 270734 277082 180854
832349710771636352 271802 270706 277109 180917
832349710789847936 271722 270757 277021 180917
832349710808059648 271748 270687 277118 180889
832349710826271232 271774 270719 277140 180823
832349710844482816 271830 270753 277098 180832
832349710862694400 271784 270744 277090 180824
832349710880906112 271780 270708 277079 180838
832349710899117696 271807 270687 277108 180811
832349710917329280 271776 270663 277052 180832
832349710935540864 271811 270672 277071 180811
832349710953752576 271743 270685 277048 180809
832349710971964160 271754 270699 277077 180839
832349710990175744 271781 270687 277058 180868
832349711008387328 271730 270668 277048 180824
832349711026599040 271809 270672 277126 180871
832349711044810624 271771 270658 277039 180829
832349711063022208 271810 270686 277119 180860
832349711081233792 271723 270646 276946 180823
832349711099445504 271729 270699 276858 180811
832349711117657088 271693 270639 276765 180852
832349711135868672 271680 270674 276818 180873
832349711154080256 271618 270630 276770 180837
832349711172291968 271639 270646 276740 180836
832349711190503552 271637 270680 276715 180848
832349711208715136 271649 270680 276758 180872
832349711226926720 271658 270632 276761 180920
832349711245138432 271623 270623 276704 180826
832349711263350016 271689 270640 276742 180851
832349711281561600 271638 270648 276762 180875
832349711299773184 271698 270657 276788 180928
832349711317984896 271653 270631 276734 180820
832349711336196480 271678 270668 276773 180843
832349711354408064 271663 270646 276796 180845
832349711372619648 271681 270674 276815 180873
832349711390831342 271581 270626 276708 180849
832349711409042944 271607 270617 276730 180835
832349711427254528 271658 270734 276764 180849
832349711445466240 271636 270612 276708 180859
832349711463677824 271672 270672 276797 180846
832349711481889408 271683 270692 276816 180860
832349711500100992 271717 270696 276767 180856
832349711518312704 271686 270650 276850 180883
832349711536524288 271696 270649 276810 180884
832349711554735872 271679 270551 276738 180794
832349711572947456 271680 270642 276763 180876
832349711591159168 271644 270635 276745 180881
832349711609370752 271619 270647 276699 180820
832349711627582336 271646 270629 276758 180791
832349711645793920 271648 270626 276773 180830
832349711664005632 271606 270615 276711 180796
832349711682217216 271671 270615 276731 180809
832349711700428800 271628 270624 276744 180840
832349711718640384 271646 270663 276720 180835
832349711736852096 271615 270599 276723 180824
832349711755063680 271673 270584 276772 180859
832349711773275264 271655 270580 276717 180836
832349711791486848 271650 270689 276794 180841
832349711809698560 271649 270643 276776 180807
832349711827910144 271638 270640 276750 180831
832349711846121728 271691 270674 276762 180784
832349711864333312 271592 270635 276704 180847
832349711882545024 271607 270674 276755 180859
832349711900756608 271577 270660 276758 180821
832349711918968192 271662 270608 276790 180874
832349711937179776 271687 270620 276741 180835
832349711955391488 271715 270637 276761 180849
832349711973603072 271644 270632 276716 180889
832349711991814656 271643 270655 276782 180864
832349712010026240 271619 270669 276736 180883
832349712028237952 271602 270631 276731 180834
832349712046449536 271639 270632 276746 180849
832349712064661120 271731 270633 276789 180889
832349712082872704 271598 270650 276570 180843
832349712101084416 271609 270636 276595 180936
832349712119296000 271609 270634 276529 180898
832349712137507584 271631 270646 276505 180887
832349712155719168 271563 270638 276504 180873
832349712173930880 271502 270579 276450 180819
832349712192142464 271522 270616 276420 180837
832349712210354048 271541 270641 276493 180877
832349712228565632 271458 270596 276449 180832
832349712246777344 271536 270567 276467 180818
832349712264988940 271527 270642 276494 180829
832349712283200512 271589 270657 276501 180853
832349712301412096 271520 270578 276463 180855
832349712319623808 271552 270647 276523 180840
832349712337835392 271526 270613 276483 180818
832349712356046976 271495 270686 276578 180846
832349712374258560 271550 270596 276539 180837
832349712392470272 271546 270634 276449 180826
832349712410681856 271595 270646 276435 180894
832349712428893440 271529 270649 276450 180866
832349712447105024 271509 270562 276402 180868
832349712465316736 271612 270639 276525 180856
832349712483528320 271556 270611 276492 180846
832349712501739904 271571 270588 276494 180849
832349712519951488 271560 270623 276487 180860
832349712538163200 271543 270596 276533 180876
832349712556374784 271528 270580 276504 180872
832349712574586368 271546 270655 276505 180875
832349712592797952 271596 270668 276525 180868
832349712611009664 271608 270636 276497 180872
832349712629221248 271555 270586 276449 180809
832349712647432832 271614 270633 276446 180808
832349712665644416 271586 270660 276492 180857
832349712683856128 271595 270663 276487 180881
832349712702067712 271566 270588 276472 180850
832349712720279296 271567 270614 276498 180889
832349712738490880 271559 270561 276531 180907
832349712756702592 271611 270600 276516 180934
832349712774914176 271530 270620 276486 180881
832349712793125760 271562 270638 276493 180900
832349712811337344 271540 270594 276490 180907
832349712829549056 271498 270574 276430 180860
832349712847760640 271507 270579 276473 180909
832349712865972224 271560 270649 276475 180817
832349712884183808 271555 270622 276482 180831
832349712902395520 271549 270605 276467 180820
832349712920607104 271547 270625 276442 180816
832349712938818688 271552 270600 276452 180798
832349712957030272 271544 270596 276490 180840
832349712975241984 271488 270602 276473 180834
832349712993453568 271538 270535 276413 180852
832349713011665152 271573 270608 276441 180862
832349713029876736 271605 270615 276420 180870
832349713048088448 271630 270588 276514 180858
832349713066300032 271547 270580 276449 180812
832349713084511616 271450 270529 276344 180856
832349713102723200 271445 270598 276332 180851
832349713120934912 271455 270544 276234 180868
832349713139146496 271472 270554 276208 180886
832349713157358080 271432 270583 276213 180782
832349713175569664 271483 270585 276238 180813
832349713193781376 271444 270577 276233 180783
832349713211992992 271444 270605 276294 180859
832349713230204544 271455 270602 276253 180860
832349713248416128 271464 270585 276202 180841
832349713266627840 271507 270629 276235 180887
832349713284839424 271483 270639 276219 180865
832349713303051008 271488 270604 276279 180850
832349713321262592 271465 270587 276231 180856
832349713339474304 271456 270539 276202 180812
832349713357685888 271414 270594 276258 180803
832349713375897472 271449 270551 276229 180851
832349713394109056 271458 270597 276226 180831
832349713412320768 271474 270623 276235 180876
832349713430532352 271502 270573 276270 180842
832349713448743936 271451 270550 276213 180870
832349713466955520 271482 270581 276253 180882
832349713485167232 271451 270579 276177 180845
832349713503378816 271504 270641 276276 180854
832349713521590400 271464 270574 276216 180853
832349713539801984 271513 270618 276272 180846
832349713558013696 271473 270578 276235 180834
832349713576225280 271471 270531 276204 180834
832349713594436864 271474 270605 276328 180829
832349713612648448 271431 270589 276235 180845
832349713630860160 271393 270548 276166 180830
832349713649071744 271475 270531 276196 180835
832349713667283328 271451 270550 276166 180868
832349713685494912 271472 270547 276208 180887
832349713703706624 271455 270557 276263 180828
832349713721918208 271468 270595 276306 180899
832349713740129792 271471 270589 276237 180864
832349713758341376 271454 270594 276243 180874
832349713776553088 271466 270562 276229 180804
832349713794764672 271430 270584 276179 180836
832349713812976256 271481 270566 276249 180872
832349713831187840 271458 270562 276218 180848
832349713849399552 271416 270601 276215 180842
832349713867611136 271477 270571 276209 180859
832349713885822720 271448 270592 276214 180826
832349713904034304 271457 270557 276200 180845
832349713922246016 271474 270510 276173 180831
832349713940457600 271476 270570 276245 180863
832349713958669184 271487 270577 276204 180854
832349713976880768 271481 270597 276262 180819
832349713995092480 271449 270574 276181 180902
832349714013304064 271448 270594 276230 180890
832349714031515648 271409 270538 276251 180841
832349714049727232 271451 270624 276265 180884
832349714067938944 271413 270637 276260 180874
832349714086150528 271367 270549 276146 180857
832349714104362112 271369 270529 276072 180891
832349714122573696 271424 270538 276091 180855
832349714140785408 271340 270510 276048 180863
832349714158997054 271376 270526 276061 180883
832349714177208576 271433 270554 276111 180896
832349714195420160 271433 270587 276095 180872
832349714213631872 271402 270532 276044 180866
832349714231843456 271434 270602 276037 180862
832349714250055040 271447 270527 276030 180918
832349714268266624 271389 270602 276029 180919
832349714286478336 271346 270492 275959 180846
832349714304689920 271364 270552 275981 180865
832349714322901504 271384 270502 276131 180903
832349714341113088 271368 270515 276072 180869
832349714359324800 271420 270557 276064 180889
832349714377536384 271401 270583 276034 180868
832349714395747968 271341 270577 276018 180849
832349714413959552 271393 270540 276095 180873
832349714432171264 271393 270553 276041 180868
832349714450382848 271396 270554 276033 180889
832349714468594432 271407 270545 275960 180834
832349714486806016 271352 270494 276021 180868
832349714505017728 271359 270508 275977 180853
832349714523229312 271358 270472 276024 180866
832349714541440896 271404 270558 276027 180864
832349714559652480 271447 270566 276026 180875
832349714577864192 271340 270530 276015 180853
832349714596075776 271356 270550 275990 180867
832349714614287360 271354 270547 276061 180926
832349714632498944 271367 270539 276032 180896
832349714650710656 271390 270525 276012 180872
832349714668922240 271349 270573 276013 180853
832349714687133824 271374 270528 276016 180879
832349714705345408 271370 270494 275983 180846
832349714723557120 271355 270531 276033 180874
832349714741768704 271382 270546 276032 180839
832349714759980288 271400 270530 276021 180863
832349714778191872 271459 270518 276052 180902
832349714796403584 271355 270539 276038 180837
832349714814615168 271317 270588 275975 180803
832349714832826752 271335 270472 276005 180852
832349714851038336 271367 270521 276000 180863
832349714869250048 271358 270506 276030 180917
832349714887461632 271313 270527 275989 180852
832349714905673216 271384 270550 276063 180870
832349714923884800 271371 270572 275995 180836
832349714942096512 271341 270550 275986 180873
832349714960308096 271424 270560 275993 180837
832349714978519680 271416 270578 276010 180860
832349714996731264 271370 270557 276029 180872
832349715014942976 271372 270519 276029 180831
832349715033154560 271400 270555 276027 180824
832349715051366258 271352 270502 275962 180809
832349715069579392 271346 270546 276013 180846
832349715087792512 271357 270482 275982 180841
832349715106005632 271338 270584 275929 180875
832349715124218752 271302 270474 275827 180822
832349715142431872 271327 270521 275866 180839
832349715160644992 271338 270512 275898 180854
832349715178858112 271317 270540 275850 180824
832349715197071104 271243 270516 275802 180798
832349715215284224 271282 270496 275808 180801
832349715233497344 271322 270498 275870 180847
832349715251710464 271228 270453 275795 180856
832349715269923584 271254 270519 275824 180849
832349715288136704 271315 270540 275881 180905
832349715306349824 271314 270551 275818 180814
832349715324562944 271304 270516 275862 180881
832349715342776064 271314 270532 275880 180891
832349715360989184 271327 270525 275914 180877
832349715379202304 271308 270501 275912 180869
832349715397415424 271307 270561 275852 180888
832349715415628544 271297 270505 275835 180858
832349715433841664 271346 270569 275868 180866
832349715452054656 271325 270569 275835 180825
832349715470267776 271353 270543 275818 180843
832349715488480896 271374 270549 275846 180902
832349715506694016 271307 270555 275783 180809
832349715524907136 271307 270545 275841 180831
832349715543120256 271327 270565 275907 180815
832349715561333376 271325 270497 275843 180836
832349715579546496 271300 270506 275858 180869
832349715597759616 271294 270468 275840 180839
832349715615972736 271327 270475 275825 180890
832349715634185856 271324 270506 275843 180853
832349715652398976 271284 270467 275783 180839
832349715670612096 271331 270575 275856 180814
832349715688825216 271328 270472 275844 180859
832349715707038208 271254 270463 275834 180808
832349715725251328 271314 270492 275886 180864
832349715743464448 271335 270548 275860 180889
832349715761677568 271293 270539 275823 180899
832349715779890688 271390 270561 275906 180957
832349715798103808 271352 270565 275768 180904
832349715816316928 271300 270534 275841 180890
832349715834530048 271311 270556 275853 180886
832349715852743168 271381 270578 275913 180896
832349715870956288 271293 270515 275812 180816
832349715889169408 271335 270530 275870 180888
832349715907382528 271354 270560 275859 180900
832349715925595574 271318 270510 275855 180859
832349715943808640 271342 270552 275896 180866
832349715962021760 271298 270498 275817 180851
832349715980234880 271333 270506 275852 180872
832349715998448128 271295 270513 275918 180836
832349716016661248 271298 270481 275847 180830
832349716034874368 271272 270523 275866 180873
832349716053087488 271272 270525 275839 180889
832349716071300608 271283 270513 275813 180802
832349716089513728 271312 270484 275875 180880
832349716107726976 271257 270508 275778 180835
832349716125940096 271291 270537 275765 180884
832349716144153216 271261 270488 275700 180860
832349716162366336 271278 270501 275739 180836
832349716180579456 271177 270471 275708 180886
832349716198792576 271245 270539 275759 180862
832349716217005824 271314 270574 275732 180918
832349716235218944 271287 270508 275704 180874
832349716253432064 271295 270477 275721 180921
832349716271645184 271248 270476 275648 180873
832349716289858304 271257 270457 275688 180837
832349716308071424 271251 270506 275705 180840
832349716326284672 271235 270469 275639 180837
832349716344497792 271273 270453 275706 180885
832349716362710912 271210 270467 275675 180796
832349716380924032 271243 270489 275662 180820
832349716399137152 271249 270432 275655 180845
832349716417350400 271248 270434 275627 180865
832349716435563520 271237 270500 275706 180812
832349716453776640 271162 270525 275733 180809
832349716471989760 271251 270499 275683 180840
832349716490202880 271259 270480 275690 180897
832349716508416000 271285 270489 275661 180815
832349716526629248 271277 270474 275653 180845
832349716544842368 271265 270488 275715 180830
832349716563055488 271199 270510 275676 180813
832349716581268608 271262 270461 275724 180871
832349716599481728 271230 270481 275699 180862
832349716617694848 271211 270504 275668 180875
832349716635908096 271220 270474 275647 180834
832349716654121216 271211 270495 275688 180816
832349716672334336 271244 270522 275708 180856
832349716690547456 271210 270504 275665 180755
832349716708760576 271205 270532 275698 180775
832349716726973696 271254 270510 275695 180794
832349716745186944 271260 270494 275704 180816
832349716763400064 271172 270433 275684 180826
832349716781613184 271213 270453 275650 180801
832349716799826304 271196 270504 275695 180825
832349716818039424 271181 270442 275619 180847
832349716836252672 271219 270443 275661 180843
832349716854465792 271217 270469 275651 180818
832349716872678974 271168 270431 275596 180852
832349716890891520 271230 270496 275674 180832
832349716909104128 271182 270437 275657 180807
832349716927316608 271254 270495 275698 180899
832349716945529216 271310 270512 275689 180851
832349716963741696 271237 270498 275670 180830
832349716981954304 271230 270457 275718 180871
832349717000166912 271278 270461 275705 180891
832349717018379392 271267 270519 275702 180842
832349717036592000 271233 270509 275633 180858
832349717054804480 271282 270492 275663 180853
832349717073017088 271230 270451 275648 180881
832349717091229568 271274 270508 275656 180880
832349717109442176 271249 270577 275684 180852
832349717127654784 271213 270501 275636 180871
832349717145867264 271198 270447 275573 180854
832349717164079872 271159 270441 275552 180832
832349717182292352 271208 270454 275502 180837
832349717200504960 271178 270395 275506 180823
832349717218717568 271164 270432 275499 180807
832349717236930048 271116 270420 275480 180771
832349717255142656 271181 270410 275536 180778
832349717273355136 271179 270377 275497 180805
832349717291567744 271182 270464 275518 180807
832349717309780352 271176 270461 275518 180809
832349717327992832 271162 270447 275534 180815
832349717346205440 271160 270429 275504 180841
832349717364417920 271168 270470 275557 180887
832349717382630528 271227 270465 275528 180839
832349717400843136 271220 270495 275530 180869
832349717419055616 271256 270509 275582 180893
832349717437268224 271229 270427 275512 180888
832349717455480704 271182 270421 275496 180848
832349717473693312 271136 270407 275538 180855
832349717491905792 271174 270476 275556 180859
832349717510118400 271188 270416 275564 180851
832349717528331008 271163 270485 275536 180815
832349717546543488 271200 270514 275528 180857
832349717564756096 271186 270418 275487 180863
832349717582968576 271209 270463 275523 180886
832349717601181184 271239 270407 275525 180894
832349717619393792 271208 270441 275484 180841
832349717637606272 271208 270403 275519 180798
832349717655818880 271135 270401 275514 180780
832349717674031360 271150 270413 275542 180789
832349717692243968 271186 270435 275605 180864
832349717710456576 271162 270459 275506 180818
832349717728669056 271117 270443 275471 180801
832349717746881664 271123 270442 275450 180781
832349717765094144 271180 270444 275500 180822
832349717783306752 271205 270418 275584 180838
832349717801519360 271229 270484 275629 180875
832349717819731864 271219 270426 275532 180845
832349717837944960 271164 270432 275536 180853
832349717856158080 271180 270484 275555 180871
832349717874371200 271164 270457 275557 180808
832349717892584448 271132 270435 275495 180833
832349717910797568 271165 270464 275499 180801
832349717929010688 271181 270443 275495 180802
832349717947223808 271155 270479 275519 180830
832349717965436928 271222 270460 275566 180888
832349717983650048 271206 270500 275551 180892
832349718001863296 271235 270506 275520 180928
832349718020076416 271208 270446 275499 180890
832349718038289536 271213 270400 275515 180819
832349718056502656 271210 270472 275532 180919
832349718074715776 271204 270419 275513 180826
832349718092928896 271161 270467 275547 180815
832349718111142144 271195 270477 275566 180798
832349718129355264 271197 270452 275522 180866
832349718147568384 271150 270450 275432 180854
832349718165781504 271149 270437 275451 180843
832349718183994624 271132 270457 275413 180835
832349718202207872 271174 270518 275475 180885
832349718220420992 271148 270412 275416 180825
832349718238634112 271123 270424 275409 180830
832349718256847232 271160 270424 275417 180836
832349718275060352 271129 270428 275416 180817
832349718293273472 271124 270411 275401 180824
832349718311486720 271135 270471 275423 180829
832349718329699840 271116 270472 275411 180836
832349718347912960 271086 270500 275446 180865
832349718366126080 271109 270413 275405 180847
832349718384339200 271163 270457 275415 180856
832349718402552320 271126 270457 275393 180806
832349718420765568 271124 270418 275365 180774
832349718438978688 271118 270420 275424 180839
832349718457191808 271125 270420 275440 180842
832349718475404928 271165 270489 275446 180897
832349718493618048 271147 270441 275394 180857
832349718511831168 271136 270488 275468 180823
832349718530044416 271159 270482 275539 180867
832349718548257536 271235 270504 275521 180904
832349718566470656 271175 270465 275432 180822
