TIMESTAMP PPG0 PPG1 PPG2 AMBIENT
832374452780054656 -252483 -338653 -343488 -509176
832374452798236416 -252415 -338591 -343438 -509151
832374452816418304 -252352 -338528 -343388 -509116
832374452834600064 -252338 -338585 -343423 -509080
832374452852781952 -252289 -338552 -343374 -509119
832374452870963712 -252255 -338540 -343380 -509122
832374452889145600 -252453 -338603 -343421 -509167
832374452907327360 -252449 -338589 -343456 -509103
832374452925509248 -252514 -338659 -343496 -509081
832374452943691008 -252523 -338679 -343491 -509070
832374452961872896 -252508 -338655 -343500 -509069
832374452980054656 -252491 -338643 -343429 -509090
832374452998236416 -252428 -338609 -343454 -509082
832374453016418304 -252367 -338680 -343457 -509088
832374453034600064 -252329 -338642 -343404 -509087
832374453052781952 -252328 -338566 -343366 -509092
832374453070963712 -252357 -338545 -343448 -509131
832374453089145600 -252351 -338597 -343391 -509141
832374453107327360 -252433 -338661 -343456 -509153
832374453125509248 -252506 -338677 -343410 -509106
832374453143691008 -252439 -338670 -343472 -509067
832374453161872896 -252457 -338656 -343503 -509139
832374453180054656 -252461 -338685 -343500 -509135
832374453198236416 -252423 -338646 -343472 -509144
832374453216418304 -252340 -338576 -343420 -509111
832374453234600064 -252294 -338579 -343397 -509113
832374453252781952 -252311 -338623 -343440 -509062
832374453270963712 -252346 -338595 -343451 -509105
832374453289145600 -252398 -338588 -343450 -509106
832374453307327360 -252515 -338606 -343471 -509113
832374453325509248 -252555 -338678 -343522 -509070
832374453343691008 -252556 -338655 -343482 -509099
832374453361872896 -252460 -338680 -343484 -509102
832374453380054656 -252383 -338583 -343499 -509113
832374453398236416 -252379 -338606 -343485 -509031
832374453416418304 -252331 -338561 -343446 -509041
832374453434600064 -252249 -338540 -343357 -509046
832374453452781952 -252284 -338587 -343400 -509108
832374453470963712 -252321 -338601 -343452 -509144
832374453489145600 -252404 -338595 -343389 -509094
832374453507327360 -252529 -338635 -343431 -509068
832374453525509248 -252617 -338750 -343526 -509123
832374453543691008 -252528 -338659 -343519 -509105
832374453561872896 -252577 -338681 -343547 -509120
832374453580054700 -252443 -338661 -343494 -509139
832374453598269312 -252348 -338656 -343428 -509084
832374453616483968 -252281 -338565 -343413 -509111
832374453634698624 -252250 -338580 -343469 -509123
832374453652913280 -252299 -338615 -343446 -509108
832374453671127936 -252329 -338567 -343373 -509045
832374453689342592 -252484 -338640 -343479 -509107
832374453707557376 -252518 -338689 -343518 -509140
832374453725772032 -252550 -338705 -343498 -509122
832374453743986688 -252568 -338680 -343517 -509140
832374453762201344 -252520 -338618 -343516 -509064
832374453780416000 -252504 -338629 -343488 -509113
832374453798630656 -252437 -338608 -343500 -509145
832374453816845312 -252372 -338639 -343462 -509070
832374453835059968 -252275 -338547 -343420 -509059
832374453853274624 -252315 -338525 -343416 -509133
832374453871489280 -252336 -338560 -343417 -509111
832374453889704064 -252391 -338557 -343454 -509110
832374453907918720 -252541 -338616 -343495 -509096
832374453926133376 -252596 -338668 -343523 -509178
832374453944348032 -252550 -338678 -343545 -509152
832374453962562688 -252528 -338659 -343528 -509175
832374453980777344 -252485 -338702 -343501 -509173
832374453998992000 -252415 -338628 -343485 -509170
832374454017206656 -252332 -338614 -343409 -509106
832374454035421312 -252371 -338594 -343458 -509136
832374454053635968 -252416 -338582 -343460 -509127
832374454071850624 -252461 -338662 -343494 -509123
832374454090065408 -252616 -338723 -343542 -509111
832374454108280064 -252605 -338759 -343562 -509109
832374454126494720 -252618 -338754 -343558 -509183
832374454144709376 -252574 -338732 -343578 -509188
832374454162924032 -252483 -338737 -343532 -509160
832374454181138688 -252411 -338652 -343465 -509155
832374454199353344 -252364 -338652 -343467 -509161
832374454217568000 -252297 -338634 -343475 -509119
832374454235782656 -252237 -338549 -343377 -509123
832374454253997312 -252325 -338626 -343439 -509107
832374454272212096 -252443 -338619 -343427 -509117
832374454290426752 -252524 -338650 -343529 -509088
832374454308641408 -252589 -338652 -343535 -509094
832374454326856064 -252573 -338674 -343525 -509134
832374454345070720 -252569 -338651 -343486 -509134
832374454363285436 -252519 -338634 -343461 -509111
832374454381500032 -252566 -338652 -343500 -509110
832374454399714688 -252448 -338606 -343465 -509119
832374454417929344 -252317 -338574 -343464 -509117
832374454436144000 -252232 -338571 -343376 -509045
832374454454358656 -252338 -338608 -343411 -509107
832374454472573312 -252508 -338598 -343498 -509125
832374454490788096 -252598 -338719 -343602 -509139
832374454509002752 -252616 -338770 -343543 -509188
832374454527217408 -252546 -338686 -343503 -509123
832374454545432064 -252547 -338674 -343534 -509156
832374454563646720 -252554 -338655 -343511 -509186
832374454581861376 -252473 -338654 -343519 -509131
832374454600076032 -252400 -338648 -343477 -509168
832374454618290688 -252358 -338643 -343415 -509115
832374454636505344 -252320 -338594 -343433 -509094
832374454654720000 -252397 -338562 -343469 -509091
832374454672934784 -252523 -338648 -343508 -509138
832374454691149440 -252539 -338724 -343544 -509156
832374454709364096 -252584 -338728 -343547 -509163
832374454727578752 -252467 -338687 -343434 -509135
832374454745793408 -252473 -338655 -343454 -509123
832374454764008064 -252518 -338704 -343442 -509158
832374454782222720 -252408 -338585 -343468 -509136
832374454800437376 -252364 -338604 -343482 -509154
832374454818652032 -252295 -338581 -343382 -509120
832374454836866688 -252408 -338638 -343477 -509140
832374454855081344 -252469 -338701 -343552 -509143
832374454873296128 -252501 -338647 -343526 -509117
832374454891510784 -252616 -338715 -343551 -509133
832374454909725440 -252510 -338683 -343534 -509134
832374454927940096 -252482 -338660 -343509 -509099
832374454946154752 -252428 -338616 -343427 -509105
832374454964369408 -252422 -338640 -343469 -509135
832374454982584064 -252364 -338563 -343430 -509117
832374455000798720 -252255 -338553 -343395 -509167
832374455019013376 -252251 -338472 -343426 -509124
832374455037228032 -252335 -338570 -343459 -509099
832374455055442816 -252464 -338568 -343461 -509050
832374455073657472 -252610 -338647 -343565 -509125
832374455091872128 -252665 -338674 -343492 -509096
832374455110086784 -252554 -338697 -343458 -509107
832374455128301440 -252474 -338660 -343486 -509100
832374455146516096 -252479 -338632 -343477 -509123
832374455164730752 -252429 -338592 -343448 -509141
832374455182945508 -252388 -338612 -343381 -509118
832374455201159680 -252315 -338533 -343409 -509113
832374455219373824 -252258 -338514 -343392 -509115
832374455237587968 -252397 -338525 -343402 -509122
832374455255802112 -252518 -338670 -343471 -509160
832374455274016128 -252538 -338691 -343502 -509084
832374455292230272 -252565 -338746 -343603 -509113
832374455310444416 -252559 -338702 -343542 -509106
832374455328658560 -252494 -338606 -343483 -509049
832374455346872704 -252478 -338591 -343481 -509080
832374455365086848 -252513 -338652 -343491 -509170
832374455383300864 -252403 -338563 -343415 -509116
832374455401515008 -252371 -338575 -343415 -509110
832374455419729152 -252375 -338512 -343385 -509116
832374455437943296 -252381 -338595 -343459 -509107
832374455456157440 -252515 -338625 -343488 -509162
832374455474371584 -252638 -338699 -343567 -509162
832374455492585600 -252603 -338722 -343579 -509162
832374455510799744 -252555 -338691 -343495 -509110
832374455529013888 -252496 -338640 -343507 -509161
832374455547228032 -252454 -338621 -343462 -509154
832374455565442176 -252459 -338646 -343473 -509156
832374455583656320 -252432 -338589 -343440 -509119
832374455601870336 -252386 -338582 -343430 -509171
832374455620084480 -252323 -338548 -343445 -509109
832374455638298624 -252405 -338639 -343447 -509185
832374455656512768 -252467 -338653 -343480 -509080
832374455674726912 -252619 -338704 -343491 -509107
832374455692941056 -252596 -338693 -343519 -509126
832374455711155072 -252507 -338664 -343476 -509111
832374455729369216 -252472 -338608 -343455 -509140
832374455747583360 -252414 -338640 -343465 -509171
832374455765797504 -252421 -338685 -343497 -509162
832374455784011648 -252292 -338544 -343431 -509118
832374455802225792 -252346 -338579 -343467 -509160
832374455820439808 -252400 -338562 -343492 -509160
832374455838653952 -252472 -338625 -343570 -509194
832374455856868096 -252583 -338670 -343515 -509104
832374455875082240 -252649 -338769 -343551 -509122
832374455893296384 -252559 -338723 -343529 -509121
832374455911510528 -252511 -338663 -343503 -509162
832374455929724672 -252429 -338633 -343455 -509142
832374455947938686 -252443 -338632 -343514 -509108
832374455966153856 -252433 -338638 -343439 -509119
832374455984369024 -252392 -338659 -343387 -509156
832374456002584192 -252316 -338592 -343448 -509074
832374456020799360 -252383 -338596 -343469 -509131
832374456039014528 -252426 -338678 -343466 -509143
832374456057229696 -252529 -338639 -343525 -509150
832374456075444864 -252651 -338744 -343593 -509144
832374456093660032 -252570 -338713 -343571 -509091
832374456111875328 -252502 -338713 -343514 -509126
832374456130090496 -252462 -338694 -343484 -509099
832374456148305664 -252433 -338678 -343469 -509124
832374456166520832 -252364 -338615 -343467 -509060
832374456184736000 -252317 -338617 -343440 -509110
832374456202951168 -252320 -338621 -343447 -509100
832374456221166336 -252314 -338592 -343480 -509111
832374456239381504 -252495 -338613 -343532 -509141
832374456257596672 -252530 -338636 -343503 -509124
832374456275811840 -252591 -338687 -343554 -509109
832374456294027008 -252513 -338667 -343480 -509101
832374456312242176 -252462 -338622 -343490 -509099
832374456330457344 -252484 -338583 -343493 -509066
832374456348672512 -252444 -338628 -343484 -509090
832374456366887808 -252448 -338640 -343480 -509126
832374456385102976 -252349 -338603 -343410 -509133
832374456403318144 -252372 -338570 -343466 -509111
832374456421533312 -252410 -338586 -343430 -509051
832374456439748480 -252503 -338635 -343462 -509097
832374456457963648 -252609 -338704 -343526 -509113
832374456476178816 -252585 -338615 -343495 -509128
832374456494393984 -252565 -338627 -343510 -509091
832374456512609152 -252512 -338595 -343526 -509067
832374456530824320 -252425 -338611 -343485 -509105
832374456549039488 -252445 -338583 -343514 -509126
832374456567254656 -252349 -338619 -343475 -509122
832374456585469824 -252331 -338557 -343497 -509171
832374456603684992 -252326 -338604 -343460 -509137
832374456621900288 -252454 -338561 -343422 -509116
832374456640115456 -252533 -338622 -343495 -509087
832374456658330624 -252699 -338732 -343578 -509096
832374456676545792 -252635 -338721 -343551 -509166
832374456694760960 -252504 -338623 -343478 -509098
832374456712976128 -252493 -338652 -343506 -509098
832374456731191296 -252477 -338633 -343447 -509051
832374456749406464 -252392 -338608 -343461 -509082
832374456767621654 -252355 -338640 -343424 -509098
832374456785837056 -252328 -338597 -343399 -509122
832374456804052480 -252457 -338626 -343505 -509156
832374456822267776 -252432 -338665 -343472 -509094
832374456840483200 -252507 -338652 -343479 -509094
832374456858698496 -252568 -338645 -343474 -509076
832374456876913920 -252541 -338680 -343556 -509148
832374456895129216 -252529 -338662 -343508 -509183
832374456913344640 -252417 -338701 -343511 -509173
832374456931559936 -252391 -338655 -343461 -509088
832374456949775360 -252357 -338652 -343433 -509113
832374456967990656 -252341 -338518 -343467 -509081
832374456986206080 -252331 -338548 -343455 -509119
832374457004421376 -252375 -338565 -343419 -509119
832374457022636800 -252432 -338655 -343500 -509104
832374457040852096 -252513 -338683 -343551 -509131
832374457059067520 -252557 -338687 -343506 -509108
832374457077282816 -252525 -338674 -343494 -509070
832374457095498240 -252539 -338677 -343468 -509106
832374457113713536 -252495 -338614 -343378 -509100
832374457131928960 -252453 -338610 -343425 -509130
832374457150144256 -252334 -338588 -343450 -509124
832374457168359680 -252343 -338636 -343434 -509148
832374457186574976 -252308 -338563 -343411 -509136
832374457204790400 -252395 -338600 -343462 -509122
832374457223005696 -252445 -338616 -343492 -509104
832374457241221120 -252536 -338653 -343516 -509089
832374457259436416 -252496 -338688 -343473 -509090
832374457277651840 -252460 -338652 -343439 -509104
832374457295867136 -252453 -338662 -343485 -509123
832374457314082560 -252385 -338593 -343445 -509100
832374457332297856 -252383 -338633 -343437 -509109
832374457350513280 -252325 -338586 -343462 -509136
832374457368728576 -252311 -338572 -343428 -509057
832374457386944000 -252334 -338555 -343410 -509070
832374457405159296 -252372 -338584 -343413 -509120
832374457423374720 -252491 -338608 -343462 -509125
832374457441590144 -252565 -338699 -343496 -509090
832374457459805440 -252545 -338665 -343472 -509045
832374457478020864 -252499 -338664 -343484 -509032
832374457496236160 -252523 -338645 -343543 -509097
832374457514451584 -252452 -338601 -343533 -509144
832374457532666880 -252437 -338598 -343422 -509116
832374457550882304 -252328 -338553 -343399 -509066
832374457569097576 -252353 -338612 -343473 -509153
832374457587312384 -251799 -338259 -343226 -509107
832374457605527168 -251177 -337940 -343034 -509136
832374457623741824 -250665 -337698 -342876 -509121
832374457641956608 -250319 -337536 -342696 -509109
832374457660171392 -249857 -337357 -342539 -509074
832374457678386176 -249514 -337172 -342458 -509074
832374457696600832 -249127 -337009 -342281 -509120
832374457714815616 -248911 -336894 -342164 -509082
832374457733030400 -248750 -336783 -342078 -509076
832374457751245184 -248699 -336775 -342119 -509089
832374457769459840 -248906 -336809 -342154 -509121
832374457787674624 -249129 -336894 -342252 -509114
832374457805889408 -249483 -337116 -342396 -509085
832374457824104064 -249833 -337253 -342501 -509024
832374457842318848 -250315 -337559 -342690 -509118
832374457860533632 -250677 -337762 -342823 -509118
832374457878748416 -251097 -337999 -343042 -509121
832374457896963072 -251431 -338181 -343156 -509097
832374457915177856 -251699 -338312 -343228 -509073
832374457933392640 -252143 -338563 -343420 -509111
832374457951607296 -252532 -338725 -343517 -509126
832374457969822080 -252837 -338816 -343582 -509106
832374457988036864 -253219 -338987 -343745 -509108
832374458006251648 -253491 -339150 -343833 -509074
832374458024466304 -253720 -339259 -343957 -509031
832374458042681088 -253858 -339362 -344005 -509033
832374458060895872 -253957 -339360 -344052 -509127
832374458079110656 -253834 -339317 -343939 -509048
832374458097325312 -253701 -339256 -343918 -509115
832374458115540096 -253572 -339257 -343840 -509137
832374458133754880 -253484 -339123 -343802 -509116
832374458151969536 -253239 -339053 -343729 -509136
832374458170184320 -252995 -338921 -343620 -509125
832374458188399104 -252822 -338774 -343548 -509115
832374458206613888 -252608 -338671 -343497 -509071
832374458224828544 -252468 -338640 -343500 -509113
832374458243043328 -252352 -338553 -343425 -509092
832374458261258024 -252071 -338378 -343281 -509066
832374458279473280 -251845 -338312 -343242 -509075
832374458297688576 -251644 -338171 -343158 -509110
832374458315903872 -251410 -338075 -343110 -509097
832374458334119296 -251193 -337930 -342991 -509097
832374458352334592 -251173 -338018 -343015 -509060
832374458370549888 -251123 -337979 -343033 -509094
832374458388765184 -251220 -338006 -343016 -509065
832374458406980480 -251217 -337977 -343010 -509069
832374458425195904 -251304 -338063 -343099 -509126
832374458443411200 -251296 -338062 -343082 -509156
832374458461626496 -251181 -338023 -343065 -509088
832374458479841792 -251143 -337969 -343034 -509122
832374458498057088 -251034 -337930 -343045 -509122
832374458516272512 -250887 -337865 -342935 -509063
832374458534487808 -250775 -337813 -342946 -509083
832374458552703104 -250638 -337744 -342859 -509041
832374458570918400 -250584 -337689 -342842 -509102
832374458589133696 -250467 -337641 -342795 -509117
832374458607349120 -250351 -337563 -342756 -509150
832374458625564416 -250174 -337462 -342700 -509131
832374458643779712 -249956 -337436 -342603 -509143
832374458661995008 -249667 -337287 -342482 -509140
832374458680210432 -249348 -337051 -342370 -509101
832374458698425728 -249164 -337048 -342362 -509158
832374458716641024 -248852 -336838 -342166 -509118
832374458734856320 -248701 -336782 -342132 -509085
832374458753071616 -248786 -336772 -342145 -509073
832374458771287040 -248992 -336872 -342253 -509102
832374458789502336 -249248 -337006 -342383 -509106
832374458807717632 -249606 -337228 -342469 -509076
832374458825932928 -249953 -337431 -342546 -509068
832374458844148224 -250353 -337648 -342732 -509113
832374458862363648 -250658 -337762 -342845 -509060
832374458880578944 -251089 -337913 -342993 -509072
832374458898794240 -251473 -338140 -343157 -509119
832374458917009536 -251789 -338332 -343195 -509098
832374458935224832 -252220 -338469 -343356 -509097
832374458953440256 -252645 -338684 -343471 -509105
832374458971655552 -253014 -338861 -343678 -509113
832374458989870848 -253316 -339007 -343779 -509128
832374459008086144 -253667 -339220 -343920 -509135
832374459026301558 -253725 -339266 -343888 -509128
832374459044516992 -253779 -339354 -343968 -509157
832374459062732416 -253760 -339283 -343945 -509120
832374459080947712 -253693 -339236 -343953 -509165
832374459099163136 -253610 -339183 -343883 -509091
832374459117378560 -253497 -339161 -343830 -509082
832374459135593856 -253352 -339043 -343748 -509105
832374459153809280 -253168 -339012 -343710 -509106
832374459172024576 -252982 -338898 -343676 -509055
832374459190240000 -252877 -338823 -343558 -509042
832374459208455424 -252722 -338772 -343603 -509037
832374459226670720 -252467 -338612 -343485 -509135
832374459244886144 -252249 -338506 -343412 -509107
832374459263101568 -251965 -338366 -343305 -509072
832374459281316864 -251705 -338259 -343252 -509056
832374459299532288 -251558 -338173 -343181 -509109
832374459317747712 -251340 -338021 -343058 -509099
832374459335963008 -251237 -338056 -343022 -509094
832374459354178432 -251244 -337982 -343053 -509144
832374459372393856 -251258 -337988 -343065 -509123
832374459390609152 -251301 -338071 -343040 -509149
832374459408824576 -251259 -338088 -343042 -509126
832374459427039872 -251239 -338033 -343055 -509109
832374459445255296 -251199 -337966 -343037 -509096
832374459463470720 -251170 -337945 -343049 -509082
832374459481686016 -251125 -337939 -342998 -509099
832374459499901440 -251031 -337906 -342960 -509084
832374459518116864 -250885 -337859 -342926 -509069
832374459536332160 -250792 -337830 -342857 -509082
832374459554547584 -250698 -337732 -342842 -509072
832374459572763008 -250534 -337749 -342832 -509093
832374459590978304 -250465 -337689 -342764 -509115
832374459609193728 -250285 -337561 -342654 -509138
832374459627409152 -250071 -337482 -342605 -509089
832374459645624448 -249837 -337315 -342513 -509058
832374459663839872 -249589 -337209 -342406 -509117
832374459682055168 -249375 -337103 -342351 -509104
832374459700270592 -249077 -336936 -342222 -509083
832374459718486016 -248861 -336843 -342179 -509158
832374459736701312 -248664 -336762 -342155 -509067
832374459754916736 -248826 -336817 -342132 -509067
832374459773132160 -249062 -336899 -342252 -509090
832374459791347456 -249358 -337055 -342348 -509084
832374459809562812 -249647 -337235 -342465 -509140
832374459827778176 -249957 -337355 -342580 -509064
832374459845993600 -250344 -337612 -342748 -509105
832374459864209024 -250722 -337759 -342849 -509124
832374459882424320 -251104 -337966 -342944 -509077
832374459900639744 -251387 -338211 -343124 -509141
832374459918855168 -251750 -338278 -343201 -509116
832374459937070592 -252241 -338576 -343393 -509140
832374459955285888 -252724 -338781 -343546 -509079
832374459973501312 -253168 -338916 -343685 -509056
832374459991716736 -253429 -339177 -343825 -509068
832374460009932160 -253656 -339241 -343901 -509118
832374460028147456 -253726 -339253 -343906 -509086
832374460046362880 -253783 -339284 -343901 -509136
832374460064578304 -253797 -339310 -343965 -509121
832374460082793728 -253689 -339294 -343917 -509178
832374460101009152 -253528 -339214 -343871 -509119
832374460119224448 -253486 -339178 -343839 -509162
832374460137439872 -253379 -339118 -343843 -509133
832374460155655296 -253286 -339038 -343774 -509097
832374460173870720 -253227 -338988 -343796 -509144
832374460192086016 -253040 -338920 -343716 -509183
832374460210301440 -252659 -338734 -343574 -509119
832374460228516864 -252398 -338656 -343483 -509125
832374460246732288 -252214 -338532 -343422 -509155
832374460264947712 -251988 -338437 -343365 -509111
832374460283163008 -251729 -338264 -343221 -509088
832374460301378432 -251477 -338176 -343186 -509102
832374460319593856 -251351 -338043 -343078 -509075
832374460337809280 -251326 -338090 -343071 -509154
832374460356024576 -251351 -338074 -343049 -509120
832374460374240000 -251316 -338089 -343105 -509196
832374460392455424 -251283 -338087 -343005 -509154
832374460410670848 -251211 -338015 -342997 -509097
832374460428886144 -251183 -337989 -343053 -509107
832374460447101568 -251205 -338016 -343036 -509115
832374460465316992 -251108 -337930 -343025 -509073
832374460483532416 -251014 -337894 -342978 -509144
832374460501747840 -250949 -337845 -342946 -509133
832374460519963136 -250944 -337891 -342930 -509122
832374460538178560 -250869 -337847 -342879 -509082
832374460556393984 -250791 -337821 -342829 -509092
832374460574609398 -250763 -337784 -342789 -509179
832374460592824832 -250491 -337675 -342786 -509105
832374460611040256 -250339 -337506 -342699 -509090
832374460629255680 -250130 -337479 -342647 -509114
832374460647470976 -249868 -337287 -342477 -509087
832374460665686400 -249629 -337240 -342504 -509113
832374460683901824 -249303 -337048 -342301 -509084
832374460702117248 -248976 -336927 -342218 -509076
832374460720332544 -248757 -336806 -342185 -509085
832374460738547968 -248765 -336803 -342183 -509076
832374460756763392 -248910 -336841 -342141 -509088
832374460774978816 -249135 -336889 -342169 -509056
832374460793194112 -249373 -337046 -342284 -509069
832374460811409536 -249561 -337110 -342409 -509102
832374460829624960 -249885 -337328 -342559 -509143
832374460847840384 -250211 -337533 -342649 -509062
832374460866055808 -250696 -337786 -342852 -509092
832374460884271104 -251100 -337919 -342971 -509124
832374460902486528 -251525 -338113 -343105 -509079
832374460920701952 -251920 -338358 -343262 -509094
832374460938917376 -252368 -338581 -343433 -509089
832374460957132672 -252872 -338803 -343587 -509130
832374460975348096 -253262 -339045 -343803 -509125
832374460993563520 -253427 -339150 -343827 -509111
832374461011778944 -253566 -339151 -343844 -509079
832374461029994368 -253640 -339253 -343923 -509030
832374461048209664 -253683 -339207 -343928 -509047
832374461066425088 -253743 -339267 -343924 -509075
832374461084640512 -253654 -339251 -343920 -509073
832374461102855936 -253569 -339198 -343820 -509097
832374461121071232 -253570 -339123 -343869 -509035
832374461139286656 -253467 -339150 -343844 -509086
832374461157502080 -253361 -339084 -343763 -509127
832374461175717504 -253160 -338995 -343738 -509105
832374461193932800 -252811 -338779 -343574 -509067
832374461212148224 -252487 -338674 -343458 -509029
832374461230363648 -252262 -338549 -343406 -509040
832374461248579072 -252081 -338421 -343278 -509087
832374461266794496 -251880 -338304 -343310 -509138
832374461285009792 -251654 -338196 -343167 -509082
832374461303225216 -251444 -338154 -343089 -509075
832374461321440640 -251381 -338090 -343066 -509109
832374461339655984 -251373 -338057 -343036 -509097
832374461357871360 -251418 -338086 -343047 -509120
832374461376086784 -251312 -338016 -343076 -509064
832374461394302208 -251254 -338022 -342994 -509106
832374461412517504 -251194 -338017 -343024 -509100
832374461430732928 -251135 -337935 -342978 -509074
832374461448948352 -251094 -338022 -342998 -509120
832374461467163776 -251112 -338065 -343000 -509114
832374461485379072 -251014 -337970 -342985 -509096
832374461503594496 -250908 -337828 -342901 -509110
832374461521809920 -250937 -337790 -342951 -509062
832374461540025344 -250949 -337833 -342948 -509087
832374461558240640 -250895 -337819 -342822 -509088
832374461576456064 -250662 -337760 -342871 -509111
832374461594671488 -250456 -337661 -342827 -509148
832374461612886912 -250192 -337542 -342709 -509088
832374461631102336 -249975 -337379 -342552 -509073
832374461649317632 -249798 -337332 -342543 -509094
832374461667533056 -249494 -337143 -342403 -509069
832374461685748480 -249220 -336920 -342322 -509059
832374461703963904 -249047 -336903 -342300 -509079
832374461722179200 -248839 -336810 -342203 -509136
832374461740394624 -248936 -336870 -342164 -509136
832374461758610048 -249052 -336864 -342189 -509087
832374461776825472 -249152 -337021 -342204 -509117
832374461795040896 -249384 -337051 -342313 -509106
832374461813256192 -249638 -337303 -342465 -509088
832374461831471616 -249903 -337449 -342559 -509077
832374461849687040 -250309 -337589 -342686 -509116
832374461867902464 -250677 -337745 -342776 -509090
832374461886117760 -251165 -337967 -343004 -509060
832374461904333184 -251613 -338288 -343132 -509072
832374461922548608 -252050 -338443 -343323 -509090
832374461940764032 -252543 -338588 -343523 -509093
832374461958979328 -252916 -338854 -343723 -509134
832374461977194752 -253116 -338970 -343755 -509103
832374461995410176 -253340 -339076 -343850 -509113
832374462013625600 -253438 -339104 -343778 -509081
832374462031841024 -253661 -339277 -343909 -509106
832374462050056320 -253757 -339325 -343986 -509137
832374462068271744 -253734 -339280 -343900 -509096
832374462086487168 -253729 -339277 -343871 -509161
832374462104702570 -253726 -339260 -343850 -509086
832374462122917248 -253613 -339191 -343898 -509089
832374462141131904 -253520 -339181 -343875 -509104
832374462159346560 -253358 -339116 -343823 -509123
832374462177561216 -252995 -338990 -343686 -509118
832374462195775872 -252774 -338792 -343596 -509094
832374462213990528 -252502 -338680 -343459 -509104
832374462232205312 -252313 -338597 -343421 -509094
832374462250419968 -252019 -338499 -343362 -509116
832374462268634624 -251806 -338312 -343230 -509144
832374462286849280 -251621 -338260 -343208 -509077
832374462305063936 -251518 -338159 -343143 -509127
832374462323278592 -251464 -338145 -343188 -509079
832374462341493248 -251511 -338164 -343112 -509133
832374462359707904 -251355 -338040 -343041 -509074
832374462377922560 -251265 -337982 -342991 -509091
832374462396137216 -251185 -337969 -343018 -509100
832374462414352000 -251159 -337960 -343008 -509093
832374462432566656 -251079 -337945 -342995 -509098
832374462450781312 -250961 -337911 -342933 -509090
832374462468995968 -251079 -337918 -342911 -509094
832374462487210624 -251027 -337847 -342934 -509081
832374462505425280 -251057 -337899 -342960 -509042
832374462523639936 -250943 -337846 -342928 -509041
832374462541854592 -250929 -337847 -342914 -509083
832374462560069248 -250761 -337772 -342865 -509090
832374462578283904 -250557 -337691 -342796 -509108
832374462596498560 -250370 -337557 -342717 -509128
832374462614713344 -250132 -337439 -342632 -509087
832374462632928000 -249963 -337434 -342604 -509073
832374462651142656 -249695 -337294 -342456 -509105
832374462669357312 -249485 -337209 -342421 -509169
832374462687571968 -249197 -337062 -342335 -509077
832374462705786624 -249096 -337004 -342345 -509097
832374462724001280 -249035 -336903 -342265 -509116
832374462742215936 -248957 -336865 -342208 -509084
832374462760430592 -249023 -336889 -342204 -509016
832374462778645248 -249219 -336970 -342293 -509142
832374462796860032 -249356 -337036 -342337 -509098
832374462815074688 -249571 -337168 -342438 -509108
832374462833289302 -249887 -337341 -342537 -509066
832374462851504000 -250313 -337605 -342718 -509143
832374462869718656 -250731 -337743 -342863 -509047
832374462887933312 -251189 -338034 -342952 -509070
832374462906147968 -251670 -338250 -343156 -509098
832374462924362624 -252186 -338424 -343332 -509084
832374462942577280 -252591 -338713 -343476 -509092
832374462960792064 -252986 -338966 -343635 -509083
832374462979006720 -253193 -338950 -343707 -509088
832374462997221376 -253365 -339081 -343816 -509098
832374463015436032 -253508 -339181 -343835 -509115
832374463033650688 -253608 -339244 -343874 -509085
832374463051865344 -253646 -339254 -343935 -509121
832374463070080000 -253675 -339197 -343898 -509059
832374463088294656 -253689 -339252 -343972 -509069
832374463106509312 -253735 -339235 -343948 -509071
832374463124723968 -253712 -339254 -343935 -509042
832374463142938752 -253589 -339125 -343877 -509072
832374463161153408 -253265 -339011 -343774 -509055
832374463179368064 -252992 -338868 -343703 -509076
832374463197582720 -252589 -338725 -343575 -509115
832374463215797376 -252413 -338680 -343514 -509110
832374463234012032 -252152 -338494 -343371 -509076
832374463252226688 -251955 -338428 -343297 -509102
832374463270441344 -251807 -338356 -343202 -509138
832374463288656000 -251644 -338124 -343184 -509056
832374463306870656 -251602 -338127 -343171 -509155
832374463325085312 -251542 -338094 -343154 -509120
832374463343300096 -251436 -338084 -343146 -509134
832374463361514752 -251321 -338074 -343062 -509096
832374463379729408 -251238 -337991 -343046 -509070
832374463397944064 -251152 -337875 -342925 -509003
832374463416158720 -251150 -337937 -343011 -509067
832374463434373376 -251096 -337893 -343006 -509130
832374463452588032 -251056 -337888 -342959 -509068
832374463470802688 -251126 -337899 -342999 -509082
832374463489017344 -251140 -337984 -343018 -509098
832374463507232000 -251104 -337977 -343042 -509111
832374463525446784 -251091 -338006 -342991 -509081
832374463543661440 -250927 -337879 -342886 -509080
832374463561876096 -250785 -337768 -342834 -509066
832374463580090702 -250554 -337674 -342744 -509127
832374463598305024 -250284 -337563 -342680 -509107
832374463616519296 -250110 -337511 -342663 -509077
832374463634733440 -249794 -337272 -342535 -509059
832374463652947712 -249653 -337202 -342470 -509101
832374463671161856 -249460 -337160 -342437 -509177
832374463689376128 -249314 -337027 -342329 -509137
832374463707590272 -249210 -336968 -342226 -509120
832374463725804544 -249030 -336916 -342205 -509142
832374463744018688 -248901 -336842 -342202 -509160
832374463762232960 -248955 -336941 -342206 -509157
832374463780447232 -249062 -336943 -342186 -509080
832374463798661376 -249269 -337064 -342278 -509131
832374463816875648 -249562 -337170 -342423 -509136
832374463835089792 -249815 -337325 -342509 -509092
832374463853304064 -250283 -337551 -342718 -509127
832374463871518208 -250855 -337775 -342917 -509148
832374463889732480 -251348 -338059 -343041 -509151
832374463907946624 -251763 -338261 -343177 -509056
832374463926160896 -252292 -338531 -343421 -509125
832374463944375040 -252609 -338697 -343526 -509118
832374463962589312 -252945 -338884 -343716 -509172
832374463980803584 -253199 -339009 -343722 -509123
832374463999017728 -253356 -339121 -343802 -509139
832374464017232000 -253462 -339195 -343867 -509106
832374464035446144 -253560 -339252 -343859 -509132
832374464053660416 -253627 -339277 -343914 -509121
832374464071874560 -253811 -339287 -343984 -509092
832374464090088832 -253861 -339330 -343992 -509092
832374464108302976 -253830 -339427 -344022 -509092
832374464126517248 -253691 -339235 -343903 -509120
832374464144731520 -253544 -339182 -343820 -509143
832374464162945664 -253255 -339029 -343805 -509092
832374464181159936 -252988 -338899 -343672 -509158
832374464199374080 -252689 -338753 -343560 -509106
832374464217588352 -252273 -338569 -343411 -509074
832374464235802496 -252107 -338463 -343387 -509068
832374464254016644 -251973 -338411 -343337 -509055
832374464272229376 -251875 -338318 -343230 -509092
832374464290442112 -251723 -338307 -343220 -509107
832374464308654848 -251661 -338252 -343215 -509130
832374464326867584 -251501 -338177 -343142 -509111
832374464345080320 -251422 -338092 -343084 -509108
832374464363293184 -251296 -338064 -343085 -509085
832374464381505920 -251170 -338037 -343040 -509057
832374464399718656 -251065 -337939 -342935 -508990
832374464417931392 -251037 -337886 -342959 -509041
832374464436144128 -251094 -338001 -343011 -509073
832374464454356864 -251103 -337981 -342949 -509070
832374464472569600 -251192 -337989 -343033 -509083
832374464490782336 -251120 -338023 -343034 -509072
832374464508995200 -251078 -337951 -342984 -509072
832374464527207936 -251066 -337917 -342968 -509087
832374464545420672 -250866 -337824 -342886 -509050
832374464563633408 -250674 -337760 -342797 -509052
832374464581846144 -250459 -337683 -342748 -509085
832374464600058880 -250279 -337581 -342653 -509093
832374464618271616 -249974 -337415 -342562 -509019
832374464636484352 -249893 -337407 -342534 -509082
832374464654697088 -249708 -337284 -342487 -509057
832374464672909952 -249568 -337181 -342410 -509091
832374464691122688 -249424 -337072 -342323 -509092
832374464709335424 -249161 -336976 -342297 -509114
832374464727548160 -248904 -336850 -342209 -509047
832374464745760896 -248877 -336800 -342211 -509054
832374464763973632 -248922 -336864 -342194 -509077
832374464782186368 -249078 -336976 -342192 -509012
832374464800399104 -249314 -337070 -342380 -509034
832374464818611968 -249538 -337226 -342420 -509071
832374464836824704 -249978 -337341 -342593 -509068
832374464855037440 -250404 -337628 -342778 -509043
832374464873250176 -251006 -337878 -342981 -509034
832374464891462912 -251489 -338151 -343097 -509050
832374464909675648 -251885 -338350 -343304 -509087
832374464927888384 -252234 -338552 -343442 -509094
832374464946101120 -252601 -338783 -343534 -509127
832374464964313940 -252933 -338930 -343655 -509128
832374464982529792 -253170 -339060 -343725 -509109
832374465000745600 -253193 -339010 -343687 -509092
832374465018961408 -253442 -339123 -343804 -509107
832374465037177216 -253613 -339211 -343826 -509067
832374465055393024 -253734 -339277 -343906 -509103
832374465073608832 -253843 -339318 -343942 -509100
832374465091824640 -253834 -339284 -343885 -509005
832374465110040448 -253766 -339296 -343915 -509073
832374465128256256 -253539 -339183 -343891 -509081
832374465146472064 -253415 -339090 -343793 -509066
832374465164687872 -253199 -339006 -343735 -509091
832374465182903680 -252880 -338911 -343635 -509059
832374465201119488 -252580 -338698 -343531 -509083
832374465219335296 -252304 -338533 -343441 -509042
832374465237551232 -252148 -338489 -343364 -509058
832374465255767040 -252069 -338432 -343318 -509075
832374465273982848 -251932 -338384 -343331 -509089
832374465292198656 -251814 -338280 -343266 -509077
832374465310414464 -251602 -338258 -343210 -509102
832374465328630272 -251353 -338131 -343087 -509064
832374465346846080 -251300 -338124 -343032 -509019
832374465365061888 -251227 -338029 -342997 -509090
832374465383277696 -251158 -337982 -342994 -509081
832374465401493504 -251037 -337944 -342937 -509066
832374465419709312 -251075 -337937 -342976 -509102
832374465437925120 -251135 -337952 -343024 -509111
832374465456140928 -251187 -337968 -342967 -509098
832374465474356736 -251267 -337979 -343025 -509065
832374465492572544 -251218 -338006 -343031 -509087
832374465510788352 -251086 -337922 -342937 -509029
832374465529004160 -250982 -337876 -342930 -509079
832374465547219968 -250861 -337853 -342881 -509058
832374465565435776 -250714 -337730 -342820 -509046
832374465583651584 -250506 -337637 -342777 -509071
832374465601867392 -250161 -337552 -342631 -509053
832374465620083200 -250030 -337467 -342584 -509080
832374465638299008 -249816 -337359 -342504 -509092
832374465656514816 -249764 -337299 -342494 -509117
832374465674730624 -249599 -337236 -342420 -509099
832374465692946450 -249348 -337072 -342301 -509109
832374465711160704 -249065 -336971 -342232 -509127
832374465729374976 -248817 -336825 -342149 -509091
832374465747589248 -248832 -336821 -342132 -509075
832374465765803520 -248934 -336886 -342223 -509018
832374465784017792 -249060 -336996 -342288 -509024
832374465802232064 -249282 -337112 -342310 -509126
832374465820446336 -249680 -337270 -342442 -509140
832374465838660608 -250038 -337388 -342559 -509065
832374465856874880 -250619 -337660 -342790 -509090
832374465875089152 -251169 -338008 -342990 -509099
832374465893303424 -251448 -338176 -343107 -509026
832374465911517696 -251852 -338361 -343276 -509072
832374465929731968 -252229 -338580 -343425 -509067
832374465947946368 -252555 -338705 -343571 -509001
832374465966160640 -252937 -338870 -343672 -509076
832374465984374912 -253118 -338981 -343701 -509040
832374466002589184 -253375 -339100 -343831 -509064
832374466020803456 -253585 -339190 -343835 -509118
832374466039017728 -253839 -339271 -343952 -509145
832374466057232000 -253906 -339339 -344013 -509072
832374466075446272 -254001 -339383 -344041 -509111
832374466093660544 -253914 -339322 -343980 -509068
832374466111874816 -253739 -339357 -343946 -509122
832374466130089088 -253498 -339243 -343889 -509046
832374466148303360 -253360 -339103 -343842 -509111
832374466166517632 -253094 -338924 -343757 -509091
832374466184731904 -252753 -338767 -343619 -509055
832374466202946176 -252459 -338649 -343499 -509053
832374466221160448 -252343 -338592 -343460 -509055
832374466239374720 -252174 -338510 -343434 -509081
832374466257588992 -252133 -338456 -343363 -509113
832374466275803264 -251939 -338357 -343252 -509072
832374466294017536 -251781 -338314 -343237 -509099
832374466312231808 -251535 -338213 -343183 -509090
832374466330446080 -251401 -338081 -343107 -509066
832374466348660352 -251345 -338086 -343089 -509050
832374466366874624 -251190 -338030 -342998 -509049
832374466385088896 -251081 -337962 -343037 -509046
832374466403303254 -251013 -337915 -342964 -509090
832374466421517696 -251077 -337945 -342940 -509101
832374466439732096 -251234 -338030 -343045 -509089
832374466457946368 -251289 -338015 -343041 -509113
832374466476160768 -251274 -338075 -343070 -509130
832374466494375168 -251210 -338021 -343007 -509058
832374466512589440 -251023 -337895 -342917 -509033
832374466530803840 -250890 -337814 -342860 -509072
832374466549018240 -250804 -337797 -342819 -509028
832374466567232512 -250559 -337772 -342812 -509068
832374466585446912 -250298 -337609 -342689 -509050
832374466603661312 -250224 -337487 -342664 -509079
832374466621875584 -250096 -337465 -342597 -509096
832374466640089984 -250031 -337449 -342603 -509123
832374466658304256 -249828 -337350 -342526 -509091
832374466676518656 -249607 -337237 -342461 -509121
832374466694733056 -249324 -337095 -342304 -509100
832374466712947328 -249007 -336929 -342221 -509142
832374466731161728 -248782 -336779 -342111 -509119
832374466749376128 -248764 -336836 -342121 -509136
832374466767590400 -248855 -336871 -342141 -509093
832374466785804800 -249040 -336933 -342242 -509101
832374466804019200 -249385 -337106 -342394 -509096
832374466822233472 -249724 -337328 -342513 -509102
832374466840447872 -250245 -337535 -342713 -509076
832374466858662272 -250732 -337847 -342920 -509107
832374466876876544 -251129 -338000 -343018 -509116
832374466895090944 -251478 -338177 -343133 -509068
832374466913305344 -251851 -338289 -343229 -509066
832374466931519616 -252220 -338558 -343417 -509058
832374466949734016 -252589 -338729 -343578 -509162
832374466967948416 -252836 -338858 -343596 -509075
832374466986162688 -253168 -338973 -343699 -509131
832374467004377088 -253416 -339084 -343790 -509057
832374467022591360 -253607 -339161 -343903 -509081
832374467040805760 -253780 -339299 -343986 -509128
832374467059020160 -253910 -339412 -344025 -509042
832374467077234432 -253906 -339374 -344026 -509053
832374467095448832 -253770 -339328 -343968 -509054
832374467113663110 -253703 -339258 -343903 -509099
832374467131877376 -253549 -339195 -343869 -509105
832374467150091648 -253372 -339130 -343806 -509081
832374467168305792 -253103 -338975 -343713 -509116
832374467186520064 -252871 -338801 -343598 -509092
832374467204734336 -252669 -338707 -343544 -509124
832374467222948480 -252542 -338648 -343452 -509142
832374467241162752 -252414 -338634 -343427 -509186
832374467259377024 -252194 -338512 -343467 -509155
832374467277591296 -251918 -338369 -343318 -509157
832374467295805440 -251695 -338293 -343244 -509103
832374467314019712 -251573 -338236 -343194 -509159
832374467332233984 -251424 -338140 -343104 -509120
832374467350448128 -251325 -338138 -343079 -509149
832374467368662400 -251241 -338036 -343030 -509125
832374467386876672 -251188 -337974 -343030 -509087
832374467405090816 -251160 -337947 -343053 -509050
832374467423305088 -251251 -338039 -343013 -509079
832374467441519360 -251313 -338025 -343048 -509087
832374467459733504 -251250 -338013 -343040 -509055
832374467477947776 -251168 -337985 -343064 -509083
832374467496162048 -251099 -337978 -343045 -509090
832374467514376192 -251033 -337844 -342910 -509066
832374467532590464 -250899 -337828 -342913 -509105
832374467550804736 -250717 -337786 -342859 -509111
832374467569019008 -250501 -337669 -342807 -509053
832374467587233152 -250340 -337633 -342712 -509016
832374467605447424 -250225 -337509 -342623 -509063
832374467623661696 -250134 -337492 -342669 -509079
832374467641875840 -250045 -337369 -342611 -509117
832374467660090112 -249761 -337285 -342492 -509070
832374467678304384 -249511 -337123 -342355 -509094
832374467696518528 -249196 -336956 -342218 -509063
832374467714732800 -248915 -336906 -342215 -509137
832374467732947072 -248732 -336861 -342120 -509082
832374467751161216 -248753 -336792 -342123 -509099
832374467769375488 -248968 -336893 -342142 -509065
832374467787589760 -249190 -336997 -342253 -509130
832374467805804032 -249538 -337165 -342422 -509091
832374467824018176 -249936 -337393 -342577 -509099
832374467842232448 -250447 -337610 -342807 -509107
832374467860446720 -250775 -337765 -342861 -509122
832374467878660868 -251121 -337968 -343012 -509120
832374467896874368 -251516 -338159 -343123 -509138
832374467915087872 -251868 -338333 -343249 -509133
832374467933301376 -252264 -338507 -343409 -509122
832374467951514880 -252598 -338644 -343493 -509089
832374467969728384 -252915 -338877 -343629 -509150
832374467987941888 -253202 -339005 -343737 -509110
832374468006155392 -253501 -339186 -343865 -509118
832374468024368896 -253722 -339256 -343921 -509121
832374468042582400 -253869 -339376 -344036 -509143
832374468060795904 -253873 -339412 -343969 -509178
832374468079009408 -253847 -339378 -344021 -509115
832374468097222912 -253794 -339297 -343965 -509124
832374468115436416 -253696 -339227 -343870 -509114
832374468133649920 -253427 -339134 -343800 -509099
832374468151863424 -253255 -339039 -343804 -509042
832374468170076928 -253025 -338913 -343681 -509100
832374468188290432 -252846 -338844 -343604 -509096
832374468206503936 -252658 -338751 -343546 -509128
832374468224717440 -252521 -338644 -343495 -509105
832374468242930944 -252327 -338567 -343419 -509100
832374468261144448 -252149 -338455 -343304 -509122
832374468279357952 -251906 -338358 -343262 -509132
832374468297571456 -251640 -338265 -343164 -509066
832374468315784960 -251463 -338115 -343066 -509080
832374468333998464 -251368 -338115 -343101 -509162
832374468352211968 -251293 -338042 -343070 -509156
832374468370425472 -251214 -337978 -343028 -509100
832374468388638976 -251200 -337999 -343057 -509150
832374468406852480 -251241 -338056 -343103 -509133
832374468425065984 -251308 -338109 -343131 -509128
832374468443279488 -251265 -338125 -343073 -509091
832374468461492992 -251249 -338003 -343072 -509106
832374468479706496 -251188 -338008 -343098 -509089
832374468497920000 -251047 -337955 -342999 -509143
832374468516133504 -250962 -337919 -342945 -509142
832374468534347008 -250762 -337804 -342898 -509068
832374468552560512 -250606 -337744 -342742 -509100
832374468570774016 -250565 -337723 -342775 -509054
832374468588987520 -250438 -337607 -342731 -509083
832374468607201152 -250287 -337573 -342705 -509055
832374468625414656 -250220 -337547 -342711 -509101
832374468643628106 -249936 -337410 -342564 -509064
832374468661842304 -249713 -337249 -342493 -509101
832374468680056448 -249443 -337114 -342389 -509092
832374468698270592 -249162 -336942 -342253 -509046
832374468716484736 -248860 -336858 -342179 -509076
832374468734698880 -248741 -336709 -342099 -509088
832374468752913152 -248787 -336757 -342166 -509085
832374468771127296 -248989 -336906 -342240 -509072
832374468789341440 -249274 -337051 -342321 -509063
832374468807555584 -249595 -337182 -342457 -509099
832374468825769728 -249943 -337399 -342612 -509123
832374468843983872 -250316 -337556 -342682 -509124
832374468862198016 -250678 -337811 -342897 -509123
832374468880412160 -251135 -338048 -343030 -509150
832374468898626432 -251506 -338143 -343130 -509082
832374468916840576 -251865 -338387 -343305 -509130
832374468935054720 -252264 -338501 -343374 -509126
832374468953268864 -252645 -338682 -343553 -509140
832374468971483008 -253000 -338875 -343700 -509091
832374468989697152 -253391 -339097 -343813 -509137
832374469007911296 -253711 -339205 -343924 -509084
832374469026125440 -253743 -339328 -343949 -509087
832374469044339712 -253918 -339393 -344014 -509117
832374469062553856 -253853 -339278 -343949 -509077
832374469080768000 -253820 -339310 -344002 -509113
832374469098982144 -253693 -339197 -343925 -509087
832374469117196288 -253660 -339253 -343966 -509127
832374469135410432 -253416 -339095 -343803 -509076
832374469153624576 -253266 -339046 -343772 -509105
832374469171838720 -253111 -338987 -343785 -509099
832374469190052992 -252920 -338841 -343608 -509073
832374469208267136 -252699 -338773 -343586 -509079
832374469226481280 -252478 -338663 -343460 -509025
832374469244695424 -252237 -338498 -343390 -509103
832374469262909568 -251972 -338417 -343321 -509107
832374469281123712 -251746 -338304 -343218 -509064
832374469299337856 -251581 -338233 -343168 -509130
832374469317552000 -251338 -338096 -343048 -509104
832374469335766272 -251226 -338046 -343020 -509132
832374469353980416 -251301 -338115 -343114 -509138
832374469372194560 -251297 -338036 -343083 -509142
832374469390408704 -251323 -338037 -343078 -509123
832374469408622814 -251330 -338091 -343084 -509111
832374469426837760 -251256 -338072 -343088 -509128
832374469445052672 -251205 -338023 -343027 -509084
832374469463267584 -251172 -338055 -342984 -509118
832374469481482368 -251129 -338008 -342990 -509082
832374469499697280 -251082 -338002 -343038 -509060
832374469517912192 -250904 -337901 -342923 -509088
832374469536127104 -250838 -337830 -342870 -509077
832374469554342016 -250696 -337752 -342827 -509036
832374469572556800 -250628 -337769 -342836 -509082
832374469590771712 -250542 -337686 -342775 -509131
832374469608986624 -250379 -337592 -342683 -509126
832374469627201536 -250132 -337455 -342645 -509116
832374469645416448 -249977 -337345 -342588 -509096
832374469663631232 -249640 -337282 -342474 -509084
832374469681846144 -249349 -337140 -342363 -509086
832374469700061056 -249094 -336985 -342263 -509043
832374469718275968 -248877 -336854 -342176 -509079
832374469736490880 -248765 -336858 -342167 -509076
832374469754705664 -248886 -336836 -342133 -509098
832374469772920576 -249074 -336905 -342195 -509026
832374469791135488 -249384 -337083 -342380 -509080
832374469809350400 -249628 -337196 -342476 -509085
832374469827565312 -249963 -337340 -342585 -509114
832374469845780096 -250307 -337567 -342731 -509117
832374469863995008 -250669 -337747 -342866 -509086
832374469882209920 -251114 -337955 -342988 -509056
832374469900424832 -251491 -338148 -343144 -509069
832374469918639744 -251750 -338293 -343260 -509064
832374469936854528 -252216 -338501 -343430 -509064
832374469955069440 -252658 -338725 -343519 -509082
832374469973284352 -253138 -338976 -343686 -509120
832374469991499264 -253399 -339086 -343786 -509034
832374470009714176 -253637 -339220 -343941 -509106
832374470027928960 -253752 -339266 -343917 -509062
832374470046143872 -253778 -339309 -343945 -509109
832374470064358784 -253819 -339296 -343953 -509080
832374470082573696 -253796 -339330 -343994 -509137
832374470100788608 -253595 -339243 -343842 -509069
832374470119003392 -253526 -339181 -343867 -509094
832374470137218304 -253462 -339127 -343805 -509048
832374470155433216 -253300 -339062 -343763 -509055
832374470173648036 -253167 -339017 -343728 -509091
832374470191863936 -253003 -338926 -343687 -509094
832374470210079872 -252626 -338727 -343544 -509074
832374470228295936 -252422 -338591 -343427 -509050
832374470246511872 -252150 -338491 -343321 -509067
832374470264727808 -251979 -338386 -343320 -509119
832374470282943872 -251700 -338212 -343144 -509093
832374470301159808 -251476 -338082 -343072 -509067
832374470319375744 -251386 -337997 -343075 -509097
832374470337591808 -251373 -337985 -343046 -509154
832374470355807744 -251387 -338035 -343054 -509109
832374470374023680 -251386 -338086 -343107 -509099
832374470392239616 -251432 -338074 -343044 -509093
832374470410455680 -251357 -338097 -343082 -509150
832374470428671616 -251296 -338035 -343039 -509000
832374470446887552 -251270 -338088 -343110 -509052
832374470465103616 -251223 -338070 -343095 -509145
832374470483319552 -251168 -337981 -343016 -509134
832374470501535488 -250980 -337886 -342900 -509091
832374470519751552 -250905 -337867 -342914 -509114
832374470537967488 -250864 -337838 -342868 -509101
832374470556183424 -250865 -337801 -342880 -509172
832374470574399488 -250810 -337834 -342863 -509131
832374470592615424 -250509 -337665 -342762 -509120
832374470610831360 -250319 -337578 -342679 -509131
832374470629047424 -250073 -337462 -342633 -509124
832374470647263360 -249878 -337302 -342541 -509137
832374470665479296 -249666 -337216 -342448 -509054
832374470683695232 -249357 -337131 -342346 -509068
832374470701911296 -249068 -336954 -342264 -509087
832374470720127232 -248818 -336839 -342157 -509073
832374470738343168 -248854 -336821 -342219 -509100
832374470756559232 -248934 -336929 -342263 -509125
832374470774775168 -249194 -337080 -342357 -509094
832374470792991104 -249445 -337198 -342409 -509144
832374470811207168 -249631 -337260 -342503 -509090
832374470829423104 -250008 -337449 -342655 -509142
832374470847639040 -250412 -337661 -342803 -509166
832374470865855104 -250744 -337844 -342865 -509109
832374470884071040 -251067 -338041 -343041 -509154
832374470902286976 -251467 -338152 -343154 -509170
832374470920503040 -251919 -338299 -343243 -509069
832374470938719040 -252426 -338617 -343450 -509145
832374470956933760 -252869 -338913 -343682 -509106
832374470975148544 -253282 -339042 -343818 -509141
832374470993363328 -253523 -339191 -343899 -509133
832374471011578240 -253649 -339269 -343927 -509134
832374471029793024 -253731 -339296 -343962 -509081
832374471048007808 -253776 -339338 -343963 -509113
832374471066222592 -253741 -339350 -343970 -509132
832374471084437504 -253718 -339300 -343973 -509126
832374471102652288 -253672 -339264 -343881 -509158
832374471120867072 -253507 -339216 -343829 -509124
832374471139081856 -253538 -339184 -343893 -509194
832374471157296768 -253457 -339126 -343799 -509113
832374471175511552 -253232 -339044 -343735 -509079
832374471193726336 -252930 -338883 -343605 -509100
832374471211941120 -252671 -338776 -343556 -509075
832374471230155904 -252358 -338577 -343422 -509070
832374471248370816 -252184 -338572 -343444 -509117
832374471266585600 -251960 -338455 -343341 -509056
832374471284800384 -251709 -338305 -343230 -509081
832374471303015168 -251576 -338184 -343106 -509102
832374471321230080 -251519 -338150 -343098 -509091
832374471339444864 -251474 -338120 -343161 -509111
832374471357659648 -251444 -338113 -343103 -509079
832374471375874432 -251390 -338155 -343139 -509070
832374471394089344 -251376 -338042 -343098 -509144
832374471412304128 -251243 -338066 -343089 -509125
832374471430518912 -251252 -338094 -343088 -509120
832374471448733696 -251189 -338013 -343025 -509148
832374471466948480 -251209 -337994 -343058 -509136
832374471485163392 -251079 -337917 -342976 -509116
832374471503378176 -251049 -337901 -342989 -509141
832374471521592960 -251001 -337920 -342984 -509158
832374471539807744 -250985 -337836 -342963 -509122
832374471558022656 -250900 -337829 -342947 -509115
832374471576237440 -250730 -337752 -342918 -509188
832374471594452224 -250416 -337625 -342741 -509098
832374471612667008 -250215 -337542 -342682 -509162
832374471630881920 -250042 -337419 -342654 -509120
832374471649096704 -249784 -337354 -342546 -509082
832374471667311488 -249571 -337280 -342444 -509153
832374471685526272 -249240 -337026 -342282 -509091
832374471703741214 -248986 -336930 -342271 -509114
832374471721956608 -248860 -336867 -342154 -509110
832374471740172032 -248877 -336854 -342186 -509083
832374471758387456 -249039 -336927 -342300 -509090
832374471776603008 -249209 -337023 -342301 -509090
832374471794818432 -249441 -337144 -342398 -509081
832374471813033856 -249696 -337300 -342517 -509126
832374471831249280 -250046 -337469 -342605 -509135
832374471849464704 -250446 -337699 -342740 -509124
832374471867680256 -250808 -337851 -342930 -509135
832374471885895680 -251134 -337981 -343037 -509083
832374471904111104 -251642 -338169 -343153 -509133
832374471922326528 -252027 -338433 -343339 -509135
832374471940541952 -252615 -338704 -343549 -509122
832374471958757504 -253048 -338944 -343714 -509132
832374471976972928 -253339 -339114 -343825 -509089
832374471995188352 -253468 -339202 -343844 -509145
832374472013403776 -253595 -339218 -343902 -509077
832374472031619328 -253637 -339269 -343909 -509126
832374472049834752 -253729 -339360 -343995 -509128
832374472068050176 -253736 -339332 -343928 -509134
832374472086265600 -253735 -339305 -343926 -509093
832374472104481024 -253681 -339271 -343898 -509132
832374472122696576 -253638 -339235 -343921 -509138
832374472140912000 -253612 -339189 -343891 -509142
832374472159127424 -253383 -339140 -343857 -509093
832374472177342848 -253101 -338988 -343737 -509050
832374472195558272 -252837 -338861 -343618 -509076
832374472213773824 -252587 -338720 -343579 -509141
832374472231989248 -252349 -338581 -343448 -509063
832374472250204672 -252118 -338454 -343340 -509050
832374472268420096 -251858 -338361 -343278 -509120
832374472286635520 -251603 -338205 -343160 -509099
832374472304851072 -251515 -338179 -343114 -509073
832374472323066496 -251530 -338192 -343133 -509117
832374472341281920 -251560 -338207 -343121 -509104
832374472359497344 -251461 -338131 -343093 -509137
832374472377712896 -251321 -338101 -343105 -509104
832374472395928320 -251278 -338071 -343074 -509088
832374472414143790 -251180 -337974 -343044 -509014
832374472432358528 -251210 -338055 -343066 -509083
832374472450573312 -251158 -337986 -343087 -509090
832374472468788096 -251091 -337952 -343023 -509128
832374472487002880 -251056 -338005 -342959 -509154
832374472505217664 -251050 -338019 -343013 -509115
832374472523432448 -250990 -337967 -343023 -509096
832374472541647232 -251036 -337935 -342970 -509070
832374472559862016 -250865 -337932 -342927 -509076
832374472578076800 -250654 -337760 -342854 -509080
832374472596291584 -250410 -337606 -342778 -509082
832374472614506368 -250209 -337564 -342741 -509119
832374472632721152 -249975 -337387 -342644 -509096
832374472650935936 -249670 -337256 -342519 -509105
832374472669150720 -249514 -337124 -342430 -509117
832374472687365632 -249346 -337064 -342393 -509111
832374472705580416 -249141 -337004 -342263 -509043
832374472723795200 -249031 -336895 -342257 -509063
832374472742009984 -248969 -336915 -342215 -509117
832374472760224768 -249042 -336928 -342204 -509141
832374472778439552 -249152 -336946 -342305 -509116
832374472796654336 -249391 -337070 -342380 -509157
832374472814869120 -249629 -337264 -342445 -509094
832374472833083904 -249978 -337339 -342603 -509113
832374472851298688 -250321 -337565 -342677 -509092
832374472869513472 -250754 -337791 -342868 -509069
832374472887728256 -251228 -338031 -343000 -509054
832374472905943040 -251754 -338329 -343225 -509050
832374472924157824 -252232 -338513 -343361 -509086
832374472942372608 -252598 -338756 -343546 -509118
832374472960587392 -252924 -338832 -343601 -509074
832374472978802176 -253203 -339023 -343706 -509110
832374472997016960 -253429 -339112 -343806 -509123
832374473015231744 -253571 -339203 -343882 -509102
832374473033446528 -253766 -339266 -343941 -509072
832374473051661312 -253713 -339265 -343943 -509069
832374473069876096 -253696 -339264 -343973 -509071
832374473088090880 -253821 -339298 -344020 -509085
832374473106305762 -253805 -339257 -343940 -509050
832374473124521728 -253741 -339205 -343943 -509092
832374473142737664 -253629 -339215 -344008 -509103
832374473160953600 -253359 -339066 -343867 -509104
832374473179169664 -253015 -338891 -343706 -509077
832374473197385600 -252726 -338754 -343580 -509091
832374473215601536 -252426 -338595 -343467 -509080
832374473233817472 -252272 -338534 -343403 -509127
832374473252033536 -252122 -338444 -343365 -509157
832374473270249472 -251896 -338322 -343236 -509077
832374473288465408 -251729 -338255 -343218 -509093
832374473306681344 -251643 -338191 -343190 -509094
832374473324897408 -251642 -338173 -343184 -509121
832374473343113344 -251525 -338132 -343190 -509151
832374473361329280 -251388 -338034 -343105 -509098
832374473379545216 -251312 -338066 -343117 -509139
832374473397761152 -251217 -338076 -343086 -509115
832374473415977216 -251210 -337986 -343048 -509134
832374473434193152 -251096 -338048 -343064 -509075
832374473452409088 -251113 -337989 -343058 -509136
832374473470625024 -251174 -338011 -343012 -509142
832374473488841088 -251201 -337960 -342971 -509075
832374473507057024 -251184 -338013 -343031 -509109
832374473525272960 -251180 -337905 -343027 -509084
832374473543488896 -251003 -337896 -343004 -509038
832374473561704960 -250824 -337821 -342900 -509089
832374473579920896 -250558 -337699 -342836 -509103
832374473598136832 -250340 -337639 -342728 -509109
832374473616352768 -250167 -337476 -342621 -509097
832374473634568704 -249894 -337379 -342556 -509153
832374473652784768 -249783 -337297 -342528 -509206
832374473671000704 -249531 -337155 -342397 -509143
832374473689216640 -249304 -337081 -342338 -509108
832374473707432576 -249185 -336964 -342243 -509127
832374473725648640 -249057 -336896 -342225 -509119
832374473743864576 -248992 -336909 -342244 -509142
832374473762080512 -248985 -336958 -342262 -509138
832374473780296448 -249193 -337036 -342269 -509110
832374473798512384 -249424 -337104 -342349 -509108
832374473816728448 -249749 -337352 -342525 -509140
832374473834944378 -249983 -337403 -342557 -509096
832374473853159808 -250402 -337637 -342783 -509082
832374473871375232 -250955 -337877 -342943 -509133
832374473889590528 -251336 -338139 -343115 -509108
832374473907805952 -251883 -338328 -343256 -509144
832374473926021248 -252316 -338587 -343366 -509113
832374473944236672 -252719 -338772 -343551 -509110
832374473962451968 -253020 -338939 -343671 -509168
832374473980667392 -253237 -339096 -343815 -509132
832374473998882816 -253437 -339162 -343844 -509109
832374474017098112 -253527 -339188 -343875 -509106
832374474035313536 -253682 -339257 -343987 -509109
832374474053528832 -253700 -339278 -343987 -509045
832374474071744256 -253778 -339360 -343969 -509063
832374474089959552 -253902 -339367 -343995 -509122
832374474108174976 -253953 -339376 -344027 -509180
832374474126390400 -253811 -339337 -343996 -509118
832374474144605696 -253563 -339233 -343881 -509144
832374474162821120 -253301 -339109 -343789 -509150
832374474181036416 -252963 -338890 -343643 -509096
832374474199251840 -252728 -338766 -343630 -509168
832374474217467136 -252387 -338654 -343493 -509068
832374474235682560 -252206 -338547 -343385 -509065
832374474253897984 -252077 -338475 -343332 -509070
832374474272113280 -251952 -338345 -343315 -509080
832374474290328704 -251873 -338318 -343267 -509106
832374474308544000 -251745 -338308 -343178 -509121
832374474326759424 -251618 -338212 -343149 -509082
832374474344974720 -251438 -338138 -343165 -509030
832374474363190144 -251296 -338050 -343091 -509055
832374474381405568 -251284 -338006 -343064 -509065
832374474399620864 -251189 -337990 -342998 -509051
832374474417836288 -251084 -337969 -342970 -509137
832374474436051584 -251145 -337959 -343018 -509143
832374474454267008 -251131 -337911 -342983 -509121
832374474472482304 -251238 -338040 -343064 -509155
832374474490697728 -251271 -338030 -343041 -509126
832374474508913046 -251286 -338051 -343088 -509130
832374474527127424 -251135 -337973 -342987 -509145
832374474545341824 -250964 -337894 -342954 -509124
832374474563556096 -250746 -337781 -342923 -509073
832374474581770496 -250544 -337671 -342864 -509140
832374474599984896 -250273 -337597 -342705 -509063
832374474618199168 -250079 -337459 -342657 -509076
832374474636413568 -249901 -337393 -342592 -509063
832374474654627968 -249803 -337306 -342525 -509116
832374474672842240 -249600 -337177 -342434 -509083
832374474691056640 -249430 -337138 -342387 -509082
832374474709271040 -249230 -337075 -342316 -509136
832374474727485312 -248973 -336905 -342221 -509116
832374474745699712 -248900 -336900 -342168 -509054
832374474763913984 -249069 -337012 -342273 -509121
832374474782128384 -249254 -337116 -342333 -509110
832374474800342784 -249439 -337136 -342436 -509130
832374474818557056 -249635 -337223 -342496 -509139
832374474836771456 -250045 -337497 -342626 -509100
832374474854985856 -250489 -337681 -342811 -509087
832374474873200128 -251039 -337902 -342972 -509149
832374474891414528 -251535 -338160 -343196 -509111
832374474909628928 -251933 -338380 -343302 -509123
832374474927843200 -252336 -338579 -343465 -509151
832374474946057600 -252778 -338788 -343659 -509156
832374474964272000 -253011 -338944 -343752 -509122
832374474982486272 -253200 -338991 -343723 -509092
832374475000700672 -253392 -339165 -343909 -509122
832374475018915072 -253553 -339178 -343918 -509141
832374475037129344 -253759 -339309 -343960 -509122
832374475055343744 -253895 -339343 -343990 -509144
832374475073558144 -254035 -339374 -344065 -509088
832374475091772416 -254002 -339441 -344031 -509139
832374475109986816 -253867 -339402 -344022 -509074
832374475128201088 -253774 -339313 -343965 -509183
832374475146415488 -253529 -339159 -343922 -509102
832374475164629888 -253239 -339034 -343798 -509099
832374475182844160 -252993 -338923 -343700 -509130
832374475201058560 -252604 -338776 -343545 -509111
832374475219272904 -252488 -338696 -343473 -509179
832374475237489408 -252308 -338612 -343443 -509134
832374475255705856 -252233 -338512 -343441 -509156
832374475273922304 -252139 -338476 -343372 -509125
832374475292138752 -252022 -338439 -343368 -509247
832374475310355328 -251774 -338310 -343314 -509201
832374475328571776 -251582 -338209 -343212 -509196
832374475346788224 -251430 -338151 -343139 -509143
832374475365004672 -251348 -338101 -343144 -509153
832374475383221120 -251291 -338077 -343104 -509179
832374475401437568 -251203 -338024 -343095 -509163
832374475419654144 -251235 -338012 -343091 -509070
832374475437870592 -251203 -338006 -343064 -509086
832374475456087040 -251282 -338003 -343133 -509140
832374475474303488 -251401 -338119 -343144 -509149
832374475492519936 -251376 -338168 -343113 -509141
832374475510736384 -251262 -338066 -343085 -509194
832374475528952960 -251103 -338004 -342977 -509122
832374475547169408 -251021 -337942 -342966 -509160
832374475565385856 -250761 -337823 -342934 -509163
832374475583602304 -250559 -337687 -342823 -509133
832374475601818752 -250331 -337562 -342703 -509151
832374475620035200 -250079 -337469 -342711 -509122
832374475638251648 -249960 -337381 -342578 -509138
832374475656468224 -249895 -337319 -342591 -509184
832374475674684672 -249696 -337298 -342527 -509116
832374475692901120 -249441 -337112 -342441 -509124
832374475711117568 -249101 -337000 -342331 -509132
832374475729334016 -248903 -336850 -342226 -509068
832374475747550464 -248900 -336845 -342225 -509075
832374475765767040 -249030 -336916 -342330 -509124
832374475783983488 -249189 -337044 -342330 -509117
832374475802199936 -249368 -337102 -342437 -509096
832374475820416384 -249720 -337269 -342478 -509118
832374475838632832 -250127 -337524 -342682 -509121
832374475856849280 -250655 -337757 -342848 -509105
832374475875065728 -251206 -338066 -343078 -509169
832374475893282304 -251595 -338200 -343160 -509144
832374475911498752 -251959 -338450 -343331 -509176
832374475929715158 -252287 -338571 -343454 -509100
832374475947930112 -252635 -338783 -343517 -509089
832374475966145024 -252985 -338927 -343699 -509103
832374475984360064 -253165 -339065 -343795 -509113
832374476002574976 -253284 -339081 -343839 -509085
832374476020789888 -253561 -339218 -343953 -509118
832374476039004928 -253809 -339258 -343953 -509102
832374476057219840 -253921 -339366 -344057 -509139
832374476075434880 -254054 -339365 -344081 -509086
832374476093649792 -253972 -339326 -344022 -509073
832374476111864704 -253767 -339281 -343932 -509109
832374476130079744 -253640 -339253 -343950 -509092
832374476148294656 -253468 -339143 -343851 -509139
832374476166509568 -253151 -338967 -343762 -509122
832374476184724608 -252837 -338870 -343641 -509105
832374476202939520 -252602 -338660 -343568 -509200
832374476221154432 -252451 -338589 -343488 -509132
832374476239369472 -252354 -338537 -343399 -509111
832374476257584384 -252150 -338483 -343328 -509088
832374476275799424 -252019 -338474 -343400 -509077
832374476294014336 -251828 -338383 -343344 -509159
832374476312229248 -251610 -338188 -343136 -509090
832374476330444288 -251442 -338170 -343127 -509099
832374476348659200 -251358 -338115 -343054 -509086
832374476366874112 -251303 -338098 -343062 -509100
832374476385089152 -251220 -338022 -343073 -509088
832374476403304064 -251195 -337991 -342987 -509138
832374476421519104 -251218 -338058 -342973 -509123
832374476439734016 -251296 -338104 -343063 -509099
832374476457948928 -251358 -338135 -343078 -509106
832374476476163968 -251346 -338113 -343112 -509136
832374476494378880 -251289 -338093 -343107 -509154
832374476512593792 -251141 -338037 -343017 -509127
832374476530808832 -251067 -337998 -342980 -509151
832374476549023744 -250915 -337865 -342953 -509187
832374476567238656 -250664 -337763 -342888 -509116
832374476585453696 -250455 -337601 -342803 -509168
832374476603668608 -250236 -337510 -342686 -509121
832374476621883648 -250200 -337503 -342638 -509090
832374476640098560 -250048 -337439 -342711 -509074
832374476658313472 -249921 -337389 -342575 -509058
832374476676528512 -249705 -337220 -342495 -509134
832374476694743432 -249473 -337126 -342388 -509133
832374476712958848 -249202 -337030 -342337 -509130
832374476731174272 -248966 -336875 -342200 -509136
832374476749389696 -248955 -336869 -342205 -509114
832374476767604992 -249001 -336904 -342225 -509120
832374476785820416 -249147 -337009 -342282 -509101
832374476804035840 -249480 -337142 -342398 -509074
832374476822251264 -249877 -337370 -342581 -509104
832374476840466560 -250353 -337608 -342748 -509138
832374476858681984 -250860 -337877 -342947 -509103
832374476876897408 -251275 -338092 -343112 -509123
832374476895112832 -251641 -338204 -343189 -509096
832374476913328128 -251907 -338407 -343315 -509094
832374476931543552 -252321 -338598 -343467 -509143
832374476949758976 -252656 -338741 -343573 -509141
832374476967974400 -252980 -338924 -343693 -509117
832374476986189824 -253246 -339051 -343787 -509083
832374477004405120 -253508 -339168 -343924 -509132
832374477022620544 -253770 -339267 -343962 -509163
832374477040835968 -253951 -339365 -344032 -509145
832374477059051392 -253982 -339417 -344093 -509098
832374477077266688 -253946 -339421 -344085 -509111
832374477095482112 -253951 -339396 -344053 -509102
832374477113697536 -253811 -339325 -344039 -509113
832374477131912960 -253621 -339310 -343960 -509140
832374477150128384 -253440 -339162 -343842 -509183
832374477168343680 -253165 -338992 -343744 -509153
832374477186559104 -252895 -338900 -343598 -509101
832374477204774528 -252706 -338803 -343571 -509141
832374477222989952 -252571 -338738 -343567 -509090
832374477241205248 -252474 -338703 -343548 -509150
832374477259420672 -252265 -338601 -343468 -509160
832374477277636096 -251993 -338499 -343397 -509172
832374477295851520 -251766 -338344 -343254 -509110
832374477314066816 -251600 -338201 -343133 -509144
832374477332282240 -251376 -338153 -343123 -509062
832374477350497664 -251350 -338110 -343124 -509049
832374477368713088 -251300 -338002 -343020 -509091
832374477386928512 -251258 -338054 -343067 -509096
832374477405143808 -251295 -338039 -343039 -509090
832374477423359232 -251360 -338119 -343096 -509121
832374477441574656 -251438 -338139 -343192 -509140
832374477459790018 -251423 -338115 -343216 -509154
832374477478004096 -251326 -338085 -343155 -509111
832374477496218112 -251194 -338052 -343110 -509091
832374477514432128 -251078 -337964 -343014 -509079
832374477532646144 -251015 -337966 -343055 -509154
832374477550860160 -250728 -337813 -342886 -509124
832374477569074176 -250623 -337741 -342906 -509160
832374477587288192 -250433 -337622 -342792 -509118
832374477605502208 -250270 -337506 -342696 -509111
832374477623716224 -250215 -337595 -342745 -509132
832374477641930240 -250114 -337527 -342663 -509151
832374477660144256 -249918 -337388 -342641 -509149
832374477678358272 -249634 -337210 -342467 -509170
832374477696572288 -249334 -337146 -342440 -509153
832374477714786304 -249075 -336970 -342276 -509074
832374477733000320 -248868 -336879 -342227 -509121
832374477751214336 -248861 -336797 -342181 -509120
832374477769428352 -248970 -336885 -342221 -509148
832374477787642368 -249274 -336981 -342321 -509171
832374477805856384 -249601 -337154 -342462 -509133
832374477824070400 -250012 -337370 -342601 -509136
832374477842284416 -250454 -337569 -342796 -509153
832374477860498432 -250816 -337838 -342911 -509103
832374477878712448 -251282 -337998 -343056 -509139
832374477896926464 -251616 -338226 -343175 -509106
832374477915140480 -251903 -338340 -343266 -509114
832374477933354496 -252307 -338537 -343472 -509165
832374477951568512 -252655 -338706 -343568 -509126
832374477969782528 -252968 -338951 -343724 -509153
832374477987996544 -253299 -339045 -343860 -509114
832374478006210560 -253582 -339219 -343874 -509085
832374478024424576 -253862 -339320 -344041 -509114
832374478042638592 -254023 -339461 -344058 -509105
832374478060852608 -253993 -339422 -344044 -509093
832374478079066624 -253929 -339378 -344025 -509105
832374478097280640 -253825 -339368 -344025 -509124
832374478115494656 -253758 -339301 -343984 -509172
832374478133708672 -253571 -339240 -343935 -509235
832374478151922688 -253292 -339079 -343839 -509118
832374478170136576 -253029 -338960 -343706 -509135
832374478188350592 -252903 -338892 -343656 -509136
832374478206564608 -252643 -338810 -343619 -509115
832374478224778618 -252589 -338705 -343549 -509115
832374478242995456 -252422 -338633 -343516 -509117
832374478261212288 -252108 -338508 -343404 -509094
832374478279428992 -251871 -338360 -343268 -509068
832374478297645824 -251720 -338357 -343287 -509123
832374478315862528 -251535 -338226 -343161 -509092
832374478334079360 -251375 -338184 -343161 -509118
832374478352296064 -251227 -338025 -343045 -509094
832374478370512896 -251241 -338015 -343033 -509077
832374478388729600 -251252 -338040 -343089 -509073
832374478406946432 -251330 -338122 -343112 -509104
832374478425163264 -251402 -338109 -343098 -509104
832374478443379968 -251379 -338099 -343099 -509101
832374478461596800 -251324 -338101 -343055 -509125
832374478479813504 -251222 -338089 -343042 -509116
832374478498030336 -251250 -338024 -343032 -509114
832374478516247040 -251057 -337957 -342952 -509102
832374478534463872 -250869 -337812 -342897 -509130
832374478552680704 -250766 -337836 -342883 -509152
832374478570897408 -250619 -337736 -342814 -509102
832374478589114240 -250492 -337661 -342800 -509125
832374478607330944 -250386 -337564 -342717 -509171
832374478625547776 -250294 -337594 -342695 -509069
832374478643764480 -250047 -337494 -342627 -509159
832374478661981312 -249722 -337257 -342540 -509088
832374478680198016 -249488 -337212 -342468 -509111
832374478698414848 -249222 -337021 -342294 -509068
832374478716631680 -248985 -336961 -342284 -509102
832374478734848384 -248763 -336855 -342218 -509128
832374478753065216 -248809 -336863 -342256 -509133
832374478771281920 -249076 -336959 -342267 -509149
832374478789498752 -249375 -337189 -342448 -509197
832374478807715456 -249705 -337248 -342491 -509119
832374478825932288 -250073 -337452 -342629 -509116
832374478844148992 -250452 -337656 -342776 -509116
832374478862365824 -250799 -337854 -342917 -509093
832374478880582656 -251135 -337977 -343053 -509122
832374478898799360 -251533 -338253 -343177 -509075
832374478917016192 -251962 -338481 -343271 -509144
832374478935232896 -252316 -338563 -343342 -509136
832374478953449728 -252631 -338740 -343534 -509111
832374478971666432 -253086 -338955 -343705 -509083
832374478989883196 -253433 -339101 -343835 -509122
832374479008099200 -253665 -339215 -343966 -509108
832374479026315264 -253821 -339347 -344003 -509145
832374479044531456 -253908 -339402 -344047 -509134
832374479062747520 -253880 -339435 -344095 -509123
832374479080963712 -253862 -339351 -344036 -509062
832374479099179776 -253753 -339327 -343955 -509057
832374479117395968 -253624 -339248 -343907 -509124
832374479135612032 -253484 -339197 -343840 -509173
832374479153828224 -253356 -339082 -343798 -509173
832374479172044288 -253165 -339010 -343765 -509109
832374479190260352 -252910 -338890 -343609 -509138
832374479208476544 -252869 -338843 -343627 -509143
832374479226692608 -252633 -338715 -343529 -509130
832374479244908800 -252320 -338576 -343420 -509087
832374479263124864 -252095 -338448 -343317 -509128
832374479281341056 -251830 -338405 -343318 -509125
832374479299557120 -251625 -338309 -343254 -509142
832374479317773312 -251406 -338153 -343115 -509156
832374479335989376 -251354 -338091 -343078 -509150
832374479354205568 -251367 -338137 -343071 -509096
832374479372421632 -251319 -338089 -343031 -509042
832374479390637696 -251405 -338200 -343056 -509085
832374479408853888 -251465 -338156 -343109 -509148
832374479427069952 -251407 -338119 -343071 -509143
832374479445286144 -251372 -338102 -343032 -509089
832374479463502208 -251274 -338072 -343014 -509100
832374479481718400 -251138 -337967 -342987 -509105
832374479499934464 -251154 -338037 -343033 -509123
832374479518150656 -250969 -337891 -342929 -509085
832374479536366720 -250858 -337882 -342938 -509109
832374479554582784 -250868 -337836 -342886 -509131
832374479572798976 -250704 -337725 -342805 -509049
832374479591015040 -250619 -337721 -342834 -509156
832374479609231232 -250439 -337645 -342730 -509101
832374479627447296 -250269 -337568 -342671 -509108
832374479645663488 -250008 -337455 -342645 -509171
832374479663879552 -249712 -337280 -342525 -509111
832374479682095744 -249448 -337183 -342439 -509141
832374479700311808 -249161 -337070 -342351 -509115
832374479718528000 -248920 -336912 -342234 -509153
832374479736744064 -248817 -336903 -342209 -509135
832374479754960300 -248899 -336858 -342231 -509123
832374479773174400 -249105 -336953 -342287 -509110
832374479791388544 -249459 -337111 -342435 -509105
832374479809602560 -249748 -337240 -342580 -509062
832374479827816704 -250053 -337458 -342630 -509087
832374479846030720 -250437 -337618 -342779 -509105
832374479864244864 -250858 -337885 -342913 -509177
832374479882458880 -251224 -338048 -343091 -509151
832374479900673024 -251561 -338237 -343210 -509157
832374479918887040 -251953 -338391 -343321 -509100
832374479937101184 -252401 -338627 -343513 -509137
832374479955315328 -252807 -338834 -343576 -509128
832374479973529344 -253238 -339041 -343765 -509153
832374479991743488 -253596 -339234 -343895 -509152
832374480009957504 -253813 -339287 -344003 -509166
832374480028171648 -253843 -339338 -343985 -509157
832374480046385664 -253889 -339330 -343970 -509171
832374480064599808 -253797 -339368 -343965 -509156
832374480082813824 -253800 -339345 -343962 -509126
832374480101027968 -253754 -339297 -343939 -509173
832374480119242112 -253626 -339199 -343898 -509189
832374480137456128 -253527 -339182 -343959 -509139
832374480155670272 -253391 -339124 -343849 -509097
832374480173884288 -253216 -339021 -343757 -509140
832374480192098432 -253067 -338959 -343705 -509109
832374480210312448 -252807 -338798 -343631 -509123
832374480228526592 -252499 -338710 -343480 -509125
832374480246740608 -252318 -338600 -343426 -509167
832374480264954752 -252072 -338468 -343400 -509161
832374480283168896 -251903 -338341 -343272 -509169
832374480301382912 -251608 -338191 -343127 -509156
832374480319597056 -251510 -338160 -343142 -509148
832374480337811072 -251502 -338159 -343149 -509127
832374480356025216 -251451 -338161 -343082 -509105
832374480374239232 -251484 -338200 -343182 -509206
832374480392453376 -251382 -338222 -343169 -509118
832374480410667392 -251318 -338185 -343119 -509145
832374480428881536 -251297 -338124 -343058 -509105
832374480447095680 -251280 -338100 -343114 -509111
832374480465309696 -251171 -338083 -343064 -509128
832374480483523840 -251124 -338043 -343080 -509102
832374480501737856 -251079 -337965 -342997 -509116
832374480519951954 -250993 -337916 -343000 -509107
832374480538168192 -250950 -337835 -342936 -509110
832374480556384384 -250914 -337875 -342946 -509136
832374480574600576 -250804 -337791 -342898 -509170
832374480592816768 -250608 -337726 -342870 -509133
832374480611032960 -250397 -337653 -342800 -509135
832374480629249152 -250165 -337496 -342636 -509144
832374480647465344 -249924 -337392 -342613 -509131
832374480665681536 -249635 -337314 -342501 -509110
832374480683897728 -249476 -337151 -342423 -509177
832374480702113920 -249160 -336997 -342346 -509140
832374480720330112 -248967 -336994 -342227 -509091
832374480738546304 -248967 -336916 -342229 -509167
832374480756762496 -249138 -336976 -342263 -509115
832374480774978688 -249323 -337101 -342300 -509132
832374480793194880 -249590 -337180 -342410 -509135
832374480811411072 -249760 -337337 -342550 -509166
832374480829627264 -250049 -337438 -342675 -509165
832374480847843456 -250406 -337677 -342788 -509132
832374480866059648 -250805 -337821 -342967 -509134
832374480884275840 -251067 -338018 -343001 -509100
832374480902492032 -251615 -338237 -343198 -509118
832374480920708224 -252018 -338447 -343330 -509105
832374480938924416 -252570 -338711 -343552 -509162
832374480957140608 -253014 -338874 -343706 -509084
832374480975356800 -253405 -339123 -343829 -509113
832374480993572992 -253615 -339253 -343929 -509111
832374481011789184 -253716 -339299 -343954 -509152
832374481030005376 -253802 -339396 -343976 -509143
832374481048221568 -253799 -339413 -344053 -509167
832374481066437888 -253807 -339356 -343968 -509101
832374481084654080 -253703 -339336 -343979 -509148
832374481102870272 -253672 -339264 -343958 -509124
832374481121086464 -253667 -339185 -343907 -509140
832374481139302656 -253580 -339162 -343865 -509120
832374481157518848 -253439 -339141 -343849 -509116
832374481175734946 -253261 -339073 -343791 -509076
832374481193951104 -252935 -338945 -343642 -509088
832374481212167296 -252668 -338796 -343585 -509153
832374481230383488 -252384 -338669 -343421 -509065
832374481248599680 -252154 -338562 -343402 -509079
832374481266815872 -252016 -338442 -343371 -509124
832374481285032064 -251796 -338362 -343308 -509119
832374481303248256 -251552 -338206 -343198 -509089
832374481321464448 -251446 -338178 -343187 -509130
832374481339680640 -251447 -338133 -343177 -509103
832374481357896832 -251440 -338162 -343184 -509142
832374481376113024 -251416 -338128 -343170 -509155
832374481394329216 -251336 -338098 -343132 -509140
832374481412545408 -251241 -338025 -343088 -509085
832374481430761600 -251245 -338016 -343161 -509141
832374481448977792 -251228 -338003 -343062 -509172
832374481467193984 -251118 -337984 -343073 -509155
832374481485410176 -251072 -337961 -343006 -509077
832374481503626368 -251113 -337986 -343063 -509096
832374481521842560 -251043 -337933 -343008 -509161
832374481540058752 -251019 -337920 -342972 -509107
832374481558274944 -250961 -337872 -342961 -509062
832374481576491136 -250754 -337799 -342925 -509119
832374481594707328 -250504 -337654 -342850 -509148
832374481612923520 -250316 -337598 -342743 -509130
832374481631139712 -250150 -337450 -342711 -509127
832374481649355904 -249922 -337306 -342532 -509136
832374481667572096 -249599 -337266 -342422 -509100
832374481685788288 -249265 -337086 -342331 -509108
832374481704004480 -249057 -336943 -342180 -509083
832374481722220672 -248973 -336896 -342237 -509138
832374481740436992 -248933 -336880 -342213 -509116
832374481758653184 -249145 -336972 -342296 -509145
832374481776869376 -249292 -337075 -342358 -509155
832374481795085568 -249544 -337284 -342457 -509158
832374481813301760 -249761 -337335 -342567 -509139
832374481831517952 -250128 -337495 -342608 -509172
832374481849734144 -250464 -337649 -342811 -509160
832374481867950336 -250808 -337792 -342874 -509109
832374481886166528 -251166 -338046 -343015 -509082
832374481904382714 -251627 -338230 -343170 -509109
832374481922599680 -252188 -338538 -343433 -509163
832374481940816640 -252690 -338797 -343616 -509110
832374481959033472 -253178 -339040 -343831 -509094
832374481977250432 -253355 -339128 -343808 -509092
832374481995467392 -253571 -339227 -343856 -509091
832374482013684224 -253647 -339222 -343901 -509123
832374482031901184 -253731 -339288 -343942 -509109
832374482050118144 -253784 -339336 -343956 -509114
832374482068335104 -253753 -339326 -343971 -509139
832374482086551936 -253709 -339250 -343953 -509131
832374482104768896 -253715 -339266 -343954 -509080
832374482122985856 -253701 -339233 -343952 -509126
832374482141202688 -253641 -339211 -343958 -509120
832374482159419648 -253420 -339173 -343814 -509053
832374482177636608 -253121 -339013 -343747 -509131
832374482195853440 -252815 -338864 -343619 -509174
832374482214070400 -252610 -338787 -343592 -509160
832374482232287360 -252375 -338614 -343497 -509138
832374482250504192 -252183 -338466 -343363 -509154
832374482268721152 -251823 -338357 -343281 -509127
832374482286938112 -251735 -338318 -343271 -509162
832374482305155072 -251637 -338275 -343218 -509151
832374482323371904 -251609 -338261 -343229 -509102
832374482341588864 -251629 -338246 -343179 -509126
832374482359805824 -251508 -338111 -343139 -509103
832374482378022656 -251394 -338096 -343112 -509114
832374482396239616 -251373 -338100 -343114 -509173
832374482414456576 -251321 -338110 -343124 -509203
832374482432673408 -251265 -338039 -343118 -509172
832374482450890368 -251186 -338066 -343058 -509132
832374482469107328 -251153 -337990 -343109 -509148
832374482487324288 -251091 -338021 -343064 -509108
832374482505541120 -251146 -338003 -343045 -509086
832374482523758080 -251191 -338009 -343016 -509116
832374482541975040 -251115 -337980 -342986 -509096
832374482560191872 -250908 -338000 -342971 -509114
832374482578408832 -250739 -337792 -342911 -509128
832374482596625792 -250501 -337641 -342771 -509122
832374482614842624 -250280 -337569 -342709 -509216
832374482633059584 -250074 -337461 -342659 -509140
832374482651276544 -249774 -337297 -342510 -509114
832374482669493388 -249536 -337169 -342427 -509101
832374482687709440 -249323 -337065 -342439 -509172
832374482705925504 -249262 -337045 -342350 -509150
832374482724141568 -249118 -337006 -342302 -509188
832374482742357632 -249074 -336972 -342264 -509081
832374482760573696 -249099 -336967 -342310 -509104
832374482778789632 -249245 -337052 -342373 -509137
832374482797005696 -249484 -337222 -342418 -509142
832374482815221760 -249717 -337319 -342545 -509084
832374482833437824 -250034 -337442 -342606 -509131
832374482851653888 -250410 -337648 -342708 -509135
832374482869869952 -250842 -337827 -342987 -509160
832374482888086016 -251344 -338110 -343144 -509084
832374482906302080 -251831 -338322 -343244 -509103
832374482924518016 -252292 -338550 -343411 -509073
832374482942734080 -252730 -338776 -343663 -509062
832374482960950144 -253057 -338942 -343689 -509133
832374482979166208 -253310 -339071 -343825 -509111
832374482997382272 -253555 -339178 -343919 -509132
832374483015598336 -253675 -339270 -343974 -509106
832374483033814400 -253802 -339304 -343974 -509133
832374483052030464 -253754 -339282 -343988 -509117
832374483070246528 -253826 -339354 -344021 -509188
832374483088462464 -253889 -339395 -343996 -509180
832374483106678528 -253931 -339371 -344025 -509169
832374483124894592 -253886 -339359 -344038 -509195
832374483143110656 -253741 -339285 -343929 -509204
832374483161326720 -253541 -339228 -343910 -509177
832374483179542784 -253115 -339041 -343766 -509136
832374483197758848 -252870 -338861 -343695 -509138
832374483215974912 -252524 -338748 -343554 -509142
832374483234190848 -252267 -338634 -343490 -509177
832374483252406912 -252055 -338479 -343397 -509174
832374483270622976 -251851 -338338 -343335 -509107
832374483288839040 -251726 -338324 -343290 -509143
832374483307055104 -251696 -338258 -343224 -509125
832374483325271168 -251700 -338342 -343261 -509172
832374483343487232 -251624 -338236 -343228 -509166
832374483361703296 -251451 -338165 -343198 -509123
832374483379919360 -251386 -338216 -343152 -509124
832374483398135296 -251308 -338128 -343102 -509137
832374483416351360 -251265 -338058 -343053 -509115
832374483434567440 -251185 -338069 -343044 -509155
832374483452782976 -251164 -338023 -343017 -509090
832374483470998528 -251191 -338009 -343047 -509085
832374483489213952 -251193 -338029 -343050 -509084
832374483507429504 -251163 -338022 -343049 -509081
832374483525645056 -251237 -338114 -343100 -509094
832374483543860608 -251046 -337968 -343046 -509125
832374483562076032 -250846 -337842 -342940 -509118
832374483580291584 -250670 -337736 -342869 -509127
832374483598507136 -250379 -337611 -342775 -509121
832374483616722560 -250225 -337525 -342705 -509109
832374483634938112 -250011 -337423 -342630 -509103
832374483653153664 -249750 -337390 -342552 -509094
832374483671369216 -249636 -337269 -342546 -509120
832374483689584640 -249444 -337161 -342454 -509069
832374483707800192 -249314 -337069 -342389 -509127
832374483726015744 -249101 -337031 -342294 -509106
832374483744231296 -249059 -336924 -342281 -509122
832374483762446720 -249100 -336943 -342331 -509144
832374483780662272 -249229 -337052 -342391 -509124
832374483798877824 -249439 -337161 -342432 -509080
832374483817093248 -249767 -337307 -342540 -509157
832374483835308800 -250060 -337547 -342672 -509128
832374483853524352 -250454 -337674 -342783 -509186
832374483871739904 -250996 -337893 -342953 -509175
832374483889955328 -251475 -338173 -343131 -509156
832374483908170880 -251921 -338395 -343294 -509120
832374483926386432 -252363 -338652 -343532 -509141
832374483944601856 -252662 -338807 -343605 -509105
832374483962817408 -252938 -338963 -343723 -509135
832374483981032960 -253210 -339074 -343807 -509140
832374483999248512 -253451 -339108 -343829 -509106
832374484017463936 -253576 -339229 -343928 -509105
832374484035679488 -253706 -339324 -344011 -509174
832374484053895040 -253751 -339268 -343989 -509107
832374484072110464 -253797 -339333 -343988 -509135
832374484090326018 -253893 -339360 -344082 -509142
832374484108541440 -253957 -339367 -344065 -509175
832374484126756864 -253795 -339300 -344056 -509157
832374484144972288 -253599 -339227 -343933 -509187
832374484163187712 -253329 -339118 -343852 -509149
832374484181403136 -252976 -338980 -343692 -509156
832374484199618560 -252744 -338840 -343602 -509166
832374484217833984 -252445 -338704 -343484 -509159
832374484236049408 -252240 -338661 -343508 -509142
832374484254264832 -252126 -338515 -343415 -509185
832374484272480384 -252041 -338466 -343337 -509125
832374484290695808 -251934 -338375 -343357 -509166
832374484308911232 -251851 -338285 -343261 -509139
832374484327126656 -251671 -338274 -343215 -509134
832374484345342080 -251484 -338176 -343141 -509101
832374484363557504 -251325 -338102 -343082 -509119
832374484381772928 -251304 -338124 -343131 -509150
832374484399988352 -251212 -338091 -343113 -509104
832374484418203776 -251234 -338070 -343085 -509173
832374484436419200 -251174 -337996 -343036 -509143
832374484454634624 -251233 -338066 -343148 -509166
832374484472850048 -251306 -338113 -343136 -509131
832374484491065472 -251359 -338066 -343120 -509110
832374484509280896 -251350 -338133 -343132 -509143
832374484527496320 -251159 -338043 -343076 -509159
832374484545711744 -250982 -337984 -343011 -509182
832374484563927168 -250848 -337888 -342948 -509152
832374484582142592 -250568 -337713 -342845 -509157
832374484600358144 -250339 -337614 -342764 -509183
832374484618573568 -250095 -337451 -342672 -509134
832374484636788992 -249921 -337410 -342637 -509152
832374484655004416 -249776 -337277 -342503 -509114
832374484673219840 -249649 -337246 -342503 -509089
832374484691435264 -249498 -337170 -342432 -509080
832374484709650688 -249309 -337104 -342358 -509123
832374484727866112 -249032 -336957 -342264 -509090
832374484746081536 -248955 -336948 -342236 -509110
832374484764296960 -249008 -336995 -342328 -509116
832374484782512384 -249201 -337035 -342334 -509170
832374484800727808 -249461 -337178 -342399 -509162
832374484818943268 -249719 -337336 -342505 -509135
832374484837157888 -250115 -337458 -342635 -509105
832374484855372544 -250576 -337670 -342861 -509136
832374484873587200 -251115 -337985 -343028 -509084
832374484891801856 -251661 -338189 -343226 -509141
832374484910016512 -252016 -338416 -343366 -509170
832374484928231168 -252366 -338620 -343490 -509168
832374484946445952 -252669 -338755 -343598 -509137
832374484964660608 -252996 -338926 -343710 -509082
832374484982875264 -253205 -339073 -343779 -509156
832374485001089920 -253400 -339169 -343853 -509152
832374485019304576 -253579 -339269 -343922 -509093
832374485037519232 -253726 -339315 -343949 -509134
832374485055733888 -253901 -339428 -344044 -509118
832374485073948544 -253966 -339468 -344011 -509104
832374485092163200 -254074 -339473 -344089 -509178
832374485110377856 -253872 -339400 -343934 -509130
832374485128592640 -253699 -339264 -343910 -509114
832374485146807296 -253498 -339175 -343888 -509087
832374485165021952 -253241 -339066 -343806 -509115
832374485183236608 -252966 -338979 -343750 -509118
832374485201451264 -252673 -338768 -343605 -509088
832374485219665920 -252490 -338693 -343573 -509134
832374485237880576 -252347 -338582 -343427 -509170
832374485256095232 -252155 -338491 -343425 -509109
832374485274309888 -252020 -338431 -343351 -509113
832374485292524544 -251894 -338358 -343342 -509144
832374485310739200 -251710 -338311 -343272 -509173
832374485328953984 -251555 -338218 -343206 -509159
832374485347168640 -251454 -338134 -343150 -509127
832374485365383296 -251319 -338100 -343083 -509084
832374485383597952 -251223 -338094 -343127 -509107
832374485401812608 -251180 -338054 -342997 -509152
832374485420027264 -251204 -338076 -343007 -509109
832374485438241920 -251207 -338052 -343107 -509122
832374485456456576 -251275 -338092 -343110 -509161
832374485474671232 -251293 -338133 -343082 -509088
832374485492885990 -251297 -338058 -343075 -509126
832374485511100672 -251206 -338050 -343052 -509132
832374485529315328 -251150 -337952 -342951 -509128
832374485547529984 -250964 -337858 -342929 -509088
832374485565744640 -250733 -337793 -342884 -509116
832374485583959296 -250515 -337711 -342841 -509131
832374485602173952 -250324 -337571 -342715 -509125
832374485620388736 -250244 -337524 -342687 -509156
832374485638603392 -250068 -337494 -342648 -509148
832374485656818048 -249824 -337324 -342540 -509120
832374485675032704 -249704 -337338 -342499 -509155
832374485693247360 -249449 -337206 -342434 -509160
832374485711462016 -249255 -337047 -342315 -509189
832374485729676672 -248933 -336898 -342220 -509058
832374485747891328 -248945 -336954 -342178 -509105
832374485766105984 -248946 -336956 -342238 -509116
832374485784320640 -249089 -336988 -342311 -509119
832374485802535424 -249369 -337130 -342386 -509142
832374485820750080 -249758 -337270 -342539 -509137
832374485838964736 -250162 -337514 -342696 -509144
832374485857179392 -250620 -337743 -342839 -509120
832374485875394048 -251169 -337995 -342998 -509099
832374485893608704 -251634 -338210 -343213 -509070
832374485911823360 -251997 -338413 -343417 -509125
832374485930038016 -252352 -338606 -343502 -509118
832374485948252672 -252684 -338787 -343645 -509084
832374485966467328 -252980 -338921 -343711 -509059
832374485984681984 -253198 -339106 -343807 -509121
832374486002896768 -253460 -339210 -343873 -509128
832374486021111424 -253641 -339314 -343986 -509117
832374486039326080 -253832 -339393 -344023 -509113
832374486057540736 -254051 -339453 -344022 -509139
832374486075755392 -254143 -339518 -344102 -509148
832374486093970048 -253972 -339417 -344014 -509073
832374486112184704 -253876 -339335 -343977 -509072
832374486130399360 -253734 -339231 -343922 -509057
832374486148614016 -253442 -339128 -343830 -509085
832374486166828672 -253215 -339046 -343765 -509131
832374486185043456 -252894 -338901 -343698 -509102
832374486203258054 -252631 -338739 -343576 -509042
832374486221473536 -252522 -338713 -343507 -509150
832374486239688960 -252423 -338715 -343525 -509144
832374486257904384 -252358 -338597 -343480 -509150
832374486276119680 -252098 -338496 -343398 -509136
832374486294335104 -251871 -338314 -343301 -509111
832374486312550528 -251636 -338237 -343232 -509107
832374486330765952 -251564 -338235 -343215 -509131
832374486348981248 -251420 -338100 -343109 -509098
832374486367196672 -251360 -338117 -343135 -509120
832374486385412096 -251252 -338045 -343133 -509162
832374486403627520 -251188 -338033 -343092 -509136
832374486421842816 -251278 -338025 -343083 -509096
832374486440058240 -251363 -338053 -343085 -509124
832374486458273664 -251408 -338110 -343091 -509110
832374486476489088 -251337 -338069 -343113 -509073
832374486494704512 -251210 -338022 -343059 -509107
832374486512919808 -251252 -338018 -343105 -509135
832374486531135232 -251095 -337949 -342983 -509117
832374486549350656 -250886 -337838 -342963 -509118
832374486567566080 -250648 -337769 -342807 -509122
832374486585781376 -250404 -337669 -342776 -509093
832374486603996800 -250296 -337569 -342726 -509094
832374486622212224 -250192 -337525 -342645 -509109
832374486640427648 -250090 -337465 -342657 -509082
832374486658643072 -249968 -337415 -342670 -509145
832374486676858368 -249697 -337260 -342519 -509161
832374486695073792 -249389 -337119 -342368 -509083
832374486713289216 -249110 -337006 -342290 -509101
832374486731504640 -248900 -336893 -342205 -509120
832374486749719936 -248870 -336852 -342201 -509088
832374486767935360 -248931 -336911 -342252 -509088
832374486786150784 -249174 -337044 -342301 -509114
832374486804366208 -249536 -337176 -342410 -509075
832374486822581504 -249887 -337329 -342584 -509094
832374486840796928 -250374 -337587 -342763 -509101
832374486859012352 -250813 -337836 -342923 -509099
832374486877227776 -251224 -338098 -343034 -509074
832374486895443200 -251577 -338276 -343182 -509134
832374486913658496 -251959 -338427 -343328 -509119
832374486931873920 -252346 -338595 -343483 -509120
832374486950089344 -252725 -338732 -343610 -509108
832374486968304640 -252931 -338861 -343652 -509100
832374486986520704 -253306 -339037 -343789 -509123
832374487004736768 -253582 -339199 -343924 -509109
832374487022952960 -253758 -339326 -343953 -509097
832374487041169024 -253975 -339383 -344044 -509117
832374487059385216 -254048 -339436 -344139 -509125
832374487077601280 -253967 -339418 -344066 -509120
832374487095817472 -253906 -339394 -344043 -509081
832374487114033536 -253824 -339324 -344020 -509125
832374487132249728 -253677 -339246 -344000 -509134
832374487150465792 -253442 -339094 -343818 -509067
832374487168681984 -253139 -338997 -343718 -509076
832374487186898048 -252856 -338848 -343546 -509093
832374487205114112 -252734 -338789 -343608 -509125
832374487223330304 -252570 -338742 -343571 -509133
832374487241546368 -252450 -338682 -343547 -509142
832374487259762560 -252218 -338613 -343445 -509144
832374487277978624 -251983 -338474 -343366 -509174
832374487296194816 -251731 -338299 -343184 -509086
832374487314410880 -251579 -338308 -343193 -509124
832374487332627072 -251541 -338208 -343177 -509145
832374487350843136 -251352 -338118 -343144 -509071
832374487369059200 -251252 -338062 -343089 -509096
832374487387275392 -251303 -338105 -343087 -509102
832374487405491456 -251263 -338128 -343010 -509103
832374487423707648 -251352 -338136 -343088 -509137
832374487441923712 -251444 -338215 -343118 -509110
832374487460139904 -251392 -338124 -343091 -509126
832374487478355968 -251268 -338079 -343041 -509101
832374487496572160 -251195 -338040 -343065 -509106
832374487514788224 -251111 -338047 -343044 -509141
832374487533004416 -251026 -337967 -343019 -509106
832374487551220480 -250813 -337858 -342948 -509159
832374487569436544 -250620 -337713 -342899 -509170
832374487587652736 -250459 -337684 -342799 -509086
832374487605868800 -250426 -337667 -342824 -509172
832374487624084992 -250338 -337601 -342723 -509158
832374487642301056 -250225 -337573 -342730 -509111
832374487660517248 -249911 -337372 -342605 -509133
832374487678733312 -249663 -337287 -342503 -509165
832374487696949504 -249401 -337166 -342409 -509139
832374487715165568 -249118 -337133 -342317 -509157
832374487733381750 -248910 -336975 -342240 -509140
832374487751597184 -248835 -336851 -342197 -509086
832374487769812608 -249060 -336958 -342261 -509141
832374487788028032 -249341 -337140 -342431 -509128
832374487806243328 -249641 -337234 -342600 -509116
832374487824458752 -250068 -337440 -342665 -509098
832374487842674176 -250453 -337683 -342782 -509069
832374487860889600 -250919 -337883 -342994 -509157
832374487879104896 -251290 -338083 -343087 -509156
832374487897320320 -251599 -338272 -343239 -509156
832374487915535744 -251986 -338463 -343441 -509122
832374487933751168 -252394 -338578 -343579 -509154
832374487951966464 -252696 -338806 -343609 -509115
832374487970181888 -253041 -338910 -343681 -509134
832374487988397312 -253352 -339053 -343825 -509165
832374488006612736 -253620 -339167 -343928 -509130
832374488024828160 -253877 -339288 -344015 -509183
832374488043043456 -253963 -339372 -344060 -509093
832374488061258880 -253923 -339365 -344015 -509160
832374488079474304 -253964 -339437 -344095 -509157
832374488097689728 -253850 -339383 -344001 -509103
832374488115905024 -253780 -339407 -343989 -509096
832374488134120448 -253637 -339307 -343946 -509197
832374488152335872 -253334 -339106 -343838 -509127
832374488170551296 -253159 -338969 -343773 -509113
832374488188766720 -252977 -338884 -343651 -509118
832374488206982016 -252803 -338824 -343683 -509135
832374488225197440 -252647 -338727 -343609 -509096
832374488243412864 -252434 -338630 -343447 -509123
832374488261628288 -252203 -338503 -343415 -509145
832374488279843584 -251992 -338350 -343314 -509121
832374488298059008 -251755 -338314 -343278 -509154
832374488316274432 -251569 -338181 -343196 -509111
832374488334489856 -251413 -338191 -343137 -509100
832374488352705152 -251316 -338117 -343107 -509135
832374488370920576 -251262 -338063 -343126 -509140
832374488389136000 -251308 -338123 -343217 -509120
832374488407351424 -251402 -338102 -343083 -509101
832374488425566848 -251475 -338093 -343123 -509092
832374488443782144 -251428 -338097 -343107 -509090
832374488461997568 -251304 -338098 -343112 -509096
832374488480212992 -251340 -338060 -343118 -509120
832374488498428336 -251254 -338116 -343129 -509120
832374488516642944 -251184 -338024 -343089 -509160
832374488534857600 -251056 -337957 -343042 -509212
832374488553072256 -250844 -337858 -342945 -509169
832374488571286912 -250673 -337802 -342883 -509145
832374488589501568 -250630 -337734 -342837 -509201
832374488607716224 -250507 -337655 -342796 -509143
832374488625931008 -250419 -337663 -342840 -509174
832374488644145664 -250043 -337446 -342690 -509151
832374488662360320 -249756 -337305 -342570 -509117
832374488680574976 -249474 -337177 -342503 -509076
832374488698789632 -249289 -337055 -342336 -509118
832374488717004288 -249004 -336921 -342232 -509091
832374488735218944 -248784 -336847 -342214 -509098
832374488753433600 -248827 -336844 -342188 -509088
832374488771648256 -249038 -336973 -342230 -509086
832374488789862912 -249391 -337103 -342339 -509092
832374488808077696 -249719 -337288 -342513 -509096
832374488826292352 -250059 -337434 -342658 -509128
832374488844507008 -250425 -337605 -342771 -509160
832374488862721664 -250800 -337786 -342920 -509151
832374488880936320 -251248 -338033 -343061 -509140
832374488899150976 -251614 -338222 -343168 -509135
832374488917365632 -252020 -338386 -343370 -509107
832374488935580288 -252394 -338640 -343543 -509127
832374488953794944 -252753 -338769 -343600 -509130
832374488972009600 -253186 -338953 -343751 -509100
832374488990224256 -253520 -339063 -343880 -509030
832374489008439040 -253844 -339334 -343991 -509108
832374489026653696 -253842 -339339 -344022 -509125
832374489044868352 -253908 -339383 -344038 -509120
832374489063083008 -253859 -339396 -343979 -509139
832374489081297664 -253816 -339363 -344004 -509088
832374489099512320 -253810 -339313 -344007 -509063
832374489117726976 -253652 -339288 -343959 -509130
832374489135941632 -253535 -339180 -343909 -509099
832374489154156288 -253351 -339160 -343807 -509087
832374489172370944 -253211 -339025 -343774 -509115
832374489190585728 -253053 -338968 -343696 -509168
832374489208800384 -252939 -338850 -343727 -509141
832374489227015040 -252677 -338700 -343551 -509071
832374489245229696 -252437 -338660 -343484 -509107
832374489263444404 -252175 -338492 -343415 -509094
832374489281659776 -251899 -338329 -343302 -509152
832374489299875200 -251723 -338303 -343236 -509180
832374489318090624 -251475 -338190 -343219 -509141
832374489336306048 -251371 -338114 -343125 -509107
832374489354521472 -251333 -338119 -343085 -509119
832374489372736896 -251380 -338079 -343084 -509136
832374489390952320 -251406 -338160 -343095 -509097
832374489409167744 -251442 -338167 -343142 -509079
832374489427383168 -251388 -338152 -343136 -509100
832374489445598720 -251329 -338107 -343122 -509115
832374489463814144 -251223 -338040 -343081 -509081
832374489482029568 -251195 -338038 -343097 -509072
832374489500244992 -251145 -338032 -343067 -509090
832374489518460416 -251002 -337966 -343019 -509118
832374489536675840 -250949 -337940 -343003 -509145
832374489554891264 -250860 -337831 -342930 -509094
832374489573106688 -250719 -337770 -342883 -509111
832374489591322112 -250605 -337701 -342835 -509124
832374489609537536 -250396 -337629 -342715 -509086
832374489627752960 -250227 -337506 -342667 -509113
832374489645968384 -249939 -337401 -342594 -509127
832374489664183808 -249699 -337289 -342556 -509090
832374489682399232 -249517 -337192 -342421 -509117
832374489700614656 -249235 -337062 -342293 -509143
832374489718830080 -248991 -336872 -342242 -509093
832374489737045504 -248845 -336831 -342174 -509111
832374489755260928 -248958 -336851 -342231 -509073
832374489773476480 -249156 -337008 -342341 -509109
832374489791691904 -249470 -337158 -342390 -509116
832374489809907328 -249741 -337275 -342555 -509096
832374489828122752 -250077 -337494 -342709 -509128
832374489846338176 -250441 -337717 -342817 -509133
832374489864553600 -250817 -337840 -342916 -509133
832374489882769024 -251235 -338098 -343053 -509117
832374489900984448 -251560 -338223 -343239 -509109
832374489919199872 -251883 -338423 -343300 -509075
832374489937415296 -252412 -338648 -343488 -509120
832374489955630720 -252901 -338843 -343625 -509165
832374489973846144 -253276 -339025 -343796 -509156
832374489992061654 -253559 -339249 -343888 -509063
832374490010277120 -253805 -339347 -343944 -509075
832374490028492544 -253882 -339389 -344024 -509108
832374490046707968 -253886 -339344 -344003 -509088
832374490064923264 -253827 -339431 -344038 -509103
832374490083138688 -253799 -339383 -344022 -509074
832374490101354112 -253742 -339332 -344044 -509113
832374490119569536 -253582 -339224 -343927 -509086
832374490137784832 -253542 -339191 -343927 -509171
832374490156000256 -253393 -339121 -343813 -509122
832374490174215680 -253265 -339084 -343813 -509094
832374490192431104 -253083 -339002 -343739 -509113
832374490210646400 -252764 -338822 -343590 -509088
832374490228861824 -252565 -338667 -343502 -509082
832374490247077248 -252260 -338496 -343443 -509121
832374490265292672 -252012 -338405 -343298 -509155
832374490283508096 -251819 -338361 -343340 -509157
832374490301723392 -251581 -338221 -343202 -509091
832374490319938816 -251479 -338133 -343149 -509135
832374490338154240 -251319 -338161 -343103 -509090
832374490356369664 -251326 -338139 -343053 -509060
832374490374584960 -251369 -338110 -343092 -509098
832374490392800384 -251354 -338156 -343066 -509131
832374490411015808 -251271 -338120 -343069 -509110
832374490429231232 -251284 -338042 -343073 -509094
832374490447446656 -251216 -338090 -343085 -509100
832374490465661952 -251194 -338036 -343084 -509088
832374490483877376 -251237 -338063 -343057 -509124
832374490502092800 -251094 -337972 -343005 -509119
832374490520308224 -251048 -337936 -343047 -509142
832374490538523520 -251011 -337933 -343029 -509168
832374490556738944 -250921 -337860 -342993 -509190
832374490574954368 -250802 -337825 -342908 -509163
832374490593169792 -250624 -337743 -342871 -509155
832374490611385088 -250430 -337684 -342832 -509100
832374490629600512 -250231 -337567 -342723 -509128
832374490647815936 -249877 -337393 -342633 -509125
832374490666031360 -249622 -337270 -342488 -509134
832374490684246784 -249310 -337123 -342396 -509132
832374490702462080 -249095 -337075 -342348 -509130
832374490720677504 -248923 -336846 -342264 -509074
832374490738892928 -248941 -336903 -342270 -509100
832374490757108240 -249076 -336996 -342287 -509119
832374490775321088 -249329 -337130 -342390 -509067
832374490793533952 -249552 -337269 -342504 -509090
832374490811746944 -249789 -337309 -342560 -509066
832374490829959808 -250075 -337486 -342657 -509116
832374490848172800 -250328 -337649 -342744 -509055
832374490866385664 -250757 -337806 -342940 -509120
832374490884598656 -251155 -337988 -343029 -509080
832374490902811520 -251577 -338251 -343227 -509123
832374490921024512 -252020 -338397 -343375 -509124
832374490939237376 -252519 -338677 -343558 -509131
832374490957450368 -253008 -338900 -343711 -509169
832374490975663232 -253356 -339099 -343854 -509121
832374490993876224 -253627 -339185 -343978 -509098
832374491012089088 -253727 -339305 -344015 -509130
832374491030302080 -253785 -339368 -344015 -509162
832374491048514944 -253881 -339380 -344001 -509151
832374491066727936 -253861 -339302 -344010 -509140
832374491084940800 -253739 -339214 -344004 -509115
832374491103153664 -253720 -339309 -343937 -509160
832374491121366656 -253706 -339268 -343991 -509179
832374491139579520 -253625 -339276 -343951 -509141
832374491157792512 -253432 -339184 -343873 -509100
832374491176005376 -253318 -339137 -343859 -509132
832374491194218368 -253046 -338970 -343716 -509153
832374491212431232 -252624 -338803 -343637 -509122
832374491230644224 -252398 -338615 -343527 -509104
832374491248857088 -252225 -338501 -343399 -509122
832374491267070080 -252002 -338413 -343382 -509114
832374491285282944 -251734 -338264 -343217 -509120
832374491303495936 -251650 -338272 -343254 -509094
832374491321708800 -251543 -338183 -343210 -509085
832374491339921792 -251577 -338194 -343283 -509099
832374491358134656 -251550 -338232 -343171 -509097
832374491376347648 -251522 -338147 -343199 -509082
832374491394560512 -251451 -338182 -343116 -509153
832374491412773504 -251361 -338185 -343130 -509109
832374491430986368 -251268 -338115 -342996 -509119
832374491449199232 -251257 -338062 -343062 -509138
832374491467412224 -251304 -338048 -343031 -509131
832374491485625088 -251163 -337951 -342989 -509122
832374491503838080 -251140 -337983 -343033 -509135
832374491522051064 -251137 -337953 -343039 -509172
832374491540266112 -251012 -337928 -343030 -509155
832374491558481152 -250975 -337906 -343005 -509133
832374491576696064 -250817 -337779 -342926 -509135
832374491594911104 -250622 -337746 -342884 -509153
832374491613126144 -250405 -337677 -342793 -509117
832374491631341056 -250147 -337497 -342693 -509126
832374491649556096 -249954 -337408 -342607 -509196
832374491667771136 -249636 -337239 -342498 -509133
832374491685986048 -249395 -337131 -342455 -509150
832374491704201088 -249195 -337024 -342346 -509151
832374491722416128 -249035 -336931 -342334 -509158
832374491740631040 -249022 -336962 -342291 -509120
832374491758846080 -249177 -337051 -342350 -509169
832374491777061120 -249310 -337106 -342415 -509165
832374491795276032 -249511 -337231 -342499 -509166
832374491813491072 -249787 -337340 -342524 -509137
832374491831706112 -250154 -337486 -342669 -509131
832374491849921024 -250509 -337711 -342829 -509142
832374491868136064 -250844 -337833 -342916 -509126
832374491886351104 -251221 -338030 -343031 -509085
832374491904566016 -251691 -338265 -343266 -509069
832374491922781056 -252205 -338550 -343444 -509113
832374491940996096 -252603 -338727 -343633 -509079
832374491959211136 -253092 -338980 -343872 -509117
832374491977426048 -253367 -339076 -343895 -509125
832374491995641088 -253574 -339247 -343919 -509107
832374492013856128 -253715 -339301 -343989 -509126
832374492032071040 -253782 -339312 -343988 -509135
832374492050286080 -253802 -339335 -344057 -509126
832374492068501120 -253787 -339279 -343998 -509096
832374492086716032 -253801 -339230 -344002 -509136
832374492104931072 -253808 -339290 -343975 -509132
832374492123146112 -253740 -339313 -343929 -509104
832374492141361024 -253724 -339276 -343950 -509114
832374492159576064 -253386 -339134 -343827 -509117
832374492177791104 -253133 -339030 -343771 -509086
832374492196006000 -252884 -338820 -343656 -509139
832374492214220544 -252664 -338724 -343576 -509144
832374492232435072 -252423 -338683 -343496 -509128
832374492250649472 -252176 -338495 -343422 -509132
832374492268864000 -251879 -338353 -343338 -509100
832374492287078400 -251723 -338337 -343272 -509163
832374492305292928 -251623 -338311 -343263 -509139
832374492323507456 -251612 -338276 -343229 -509135
832374492341721856 -251621 -338237 -343213 -509114
832374492359936384 -251539 -338198 -343189 -509140
832374492378150784 -251465 -338154 -343134 -509161
832374492396365312 -251352 -338123 -343116 -509130
832374492414579840 -251333 -338116 -343085 -509150
832374492432794240 -251250 -338051 -343087 -509157
832374492451008768 -251173 -338039 -343065 -509143
832374492469223168 -251097 -337952 -343005 -509126
832374492487437696 -251126 -337972 -343035 -509139
832374492505652224 -251299 -338116 -343107 -509178
832374492523866624 -251195 -338005 -343053 -509168
832374492542081152 -251183 -338031 -343045 -509158
832374492560295680 -250998 -337899 -343010 -509096
832374492578510080 -250681 -337782 -342835 -509163
832374492596724608 -250555 -337642 -342745 -509114
832374492614939008 -250322 -337612 -342721 -509096
832374492633153536 -250105 -337458 -342630 -509116
832374492651368064 -249747 -337260 -342524 -509120
832374492669582464 -249543 -337144 -342448 -509108
832374492687796992 -249358 -337103 -342417 -509144
832374492706011392 -249192 -336981 -342311 -509160
832374492724225920 -249070 -336946 -342247 -509091
832374492742440448 -249108 -336967 -342261 -509122
832374492760654848 -249117 -336983 -342316 -509077
832374492778869376 -249298 -337097 -342372 -509135
832374492797083776 -249557 -337204 -342468 -509142
832374492815298304 -249784 -337381 -342591 -509139
832374492833512832 -250119 -337472 -342646 -509127
832374492851727232 -250408 -337602 -342742 -509080
832374492869941760 -250835 -337850 -342926 -509081
832374492888156160 -251344 -338108 -343127 -509083
832374492906370688 -251905 -338325 -343314 -509089
832374492924585102 -252313 -338585 -343447 -509115
832374492942800000 -252703 -338763 -343634 -509103
832374492961014912 -253103 -338963 -343761 -509145
832374492979229696 -253329 -339064 -343866 -509132
832374492997444608 -253590 -339250 -343980 -509179
832374493015659392 -253669 -339249 -343948 -509185
832374493033874304 -253798 -339305 -344035 -509145
832374493052089088 -253750 -339324 -343978 -509139
832374493070304000 -253837 -339333 -343974 -509142
832374493088518784 -253851 -339377 -343973 -509085
832374493106733696 -253851 -339334 -344012 -509150
832374493124948480 -253863 -339399 -343963 -509168
832374493143163392 -253661 -339296 -343946 -509130
832374493161378176 -253375 -339109 -343803 -509065
832374493179593088 -253077 -339032 -343738 -509151
832374493197807872 -252813 -338898 -343633 -509158
832374493216022784 -252588 -338766 -343534 -509134
832374493234237568 -252315 -338643 -343451 -509156
832374493252452480 -252092 -338491 -343354 -509165
832374493270667264 -251920 -338396 -343359 -509114
832374493288882176 -251806 -338320 -343228 -509113
832374493307096960 -251786 -338277 -343270 -509153
832374493325311872 -251748 -338281 -343308 -509165
832374493343526656 -251568 -338189 -343174 -509114
832374493361741568 -251470 -338145 -343118 -509179
832374493379956352 -251355 -338099 -343104 -509104
832374493398171264 -251360 -338118 -343152 -509155
832374493416386048 -251305 -338083 -343074 -509165
832374493434600960 -251212 -338050 -343001 -509153
832374493452815744 -251150 -338009 -342995 -509109
832374493471030656 -251124 -337964 -343073 -509106
832374493489245440 -251227 -338025 -343053 -509142
832374493507460352 -251288 -338083 -343116 -509135
832374493525675136 -251287 -338083 -343141 -509158
832374493543890048 -251054 -337950 -343074 -509140
832374493562104960 -250844 -337845 -342968 -509133
832374493580319744 -250624 -337797 -342853 -509077
832374493598534656 -250417 -337605 -342775 -509084
832374493616749440 -250278 -337491 -342724 -509133
832374493634964352 -250015 -337426 -342575 -509103
832374493653179136 -249741 -337324 -342469 -509102
832374493671394048 -249596 -337212 -342427 -509142
832374493689608800 -249460 -337166 -342411 -509084
832374493707823232 -249266 -337036 -342317 -509081
832374493726037632 -249117 -336982 -342310 -509126
832374493744252160 -248991 -336946 -342268 -509080
832374493762466560 -249082 -336993 -342255 -509085
832374493780680960 -249236 -337059 -342348 -509110
832374493798895360 -249422 -337161 -342392 -509076
832374493817109888 -249713 -337305 -342501 -509107
832374493835324288 -250112 -337507 -342618 -509102
832374493853538688 -250515 -337717 -342797 -509130
832374493871753088 -250977 -337901 -342930 -509128
832374493889967616 -251508 -338182 -343186 -509117
832374493908182016 -252004 -338428 -343342 -509076
832374493926396416 -252388 -338561 -343437 -509088
832374493944610816 -252720 -338855 -343552 -509114
832374493962825344 -252989 -339021 -343741 -509180
832374493981039744 -253315 -339108 -343839 -509159
832374493999254144 -253583 -339195 -343897 -509065
832374494017468544 -253747 -339250 -343937 -509082
832374494035683072 -253774 -339265 -344046 -509137
832374494053897472 -253821 -339368 -344025 -509106
832374494072111872 -253919 -339405 -344037 -509116
832374494090326400 -254006 -339441 -344058 -509100
832374494108540800 -254018 -339406 -344115 -509148
832374494126755200 -253797 -339319 -343968 -509059
832374494144969600 -253559 -339200 -343961 -509080
832374494163184128 -253357 -339078 -343836 -509127
832374494181398528 -253105 -338987 -343761 -509149
832374494199612928 -252847 -338873 -343625 -509176
832374494217827328 -252463 -338695 -343506 -509087
832374494236041856 -252215 -338517 -343447 -509122
832374494254256256 -252053 -338478 -343373 -509085
832374494272470656 -251974 -338434 -343312 -509120
832374494290685056 -251908 -338392 -343328 -509092
832374494308899584 -251826 -338360 -343337 -509068
832374494327113984 -251705 -338261 -343301 -509110
832374494345328384 -251561 -338171 -343202 -509179
832374494363542784 -251352 -338064 -343118 -509125
832374494381757312 -251326 -338082 -343126 -509118
832374494399971708 -251287 -338066 -343114 -509106
832374494418185088 -251223 -338056 -343076 -509106
832374494436398464 -251168 -338009 -342996 -509041
832374494454611712 -251249 -338045 -343051 -509069
832374494472825088 -251279 -338116 -343059 -509126
832374494491038464 -251346 -338091 -343147 -509113
832374494509251840 -251293 -338098 -343141 -509106
832374494527465088 -251183 -338048 -343078 -509136
832374494545678464 -250984 -337864 -342925 -509082
832374494563891840 -250808 -337840 -342896 -509130
832374494582105088 -250585 -337768 -342786 -509111
832374494600318464 -250387 -337635 -342788 -509096
832374494618531840 -250140 -337527 -342658 -509114
832374494636745088 -249929 -337407 -342528 -509023
832374494654958464 -249793 -337319 -342536 -509026
832374494673171840 -249637 -337249 -342509 -509064
832374494691385216 -249485 -337193 -342488 -509079
832374494709598464 -249335 -337106 -342423 -509100
832374494727811840 -249078 -337055 -342360 -509121
832374494746025216 -249015 -336964 -342377 -509160
832374494764238464 -249056 -337029 -342314 -509135
832374494782451840 -249235 -337044 -342332 -509163
832374494800665216 -249532 -337201 -342447 -509179
832374494818878464 -249768 -337333 -342552 -509133
832374494837091840 -250168 -337527 -342688 -509127
832374494855305216 -250621 -337803 -342896 -509135
832374494873518592 -251159 -338031 -343036 -509153
832374494891731840 -251653 -338255 -343208 -509127
832374494909945216 -252051 -338409 -343375 -509139
832374494928158592 -252325 -338687 -343500 -509134
832374494946371840 -252709 -338817 -343608 -509161
832374494964585216 -253026 -338943 -343703 -509169
832374494982798592 -253286 -339087 -343827 -509073
832374495001011968 -253456 -339159 -343917 -509081
832374495019225216 -253641 -339275 -344009 -509077
832374495037438592 -253762 -339293 -344039 -509090
832374495055651968 -253912 -339397 -344055 -509167
832374495073865216 -254009 -339419 -344044 -509110
832374495092078592 -254035 -339445 -344072 -509107
832374495110291892 -253959 -339346 -344074 -509160
832374495128507264 -253719 -339263 -343983 -509177
832374495146722688 -253514 -339241 -343927 -509159
832374495164938112 -253203 -339017 -343782 -509130
832374495183153408 -252918 -338923 -343719 -509153
832374495201368832 -252695 -338768 -343643 -509111
832374495219584256 -252449 -338719 -343543 -509135
832374495237799680 -252306 -338622 -343509 -509160
832374495256014976 -252201 -338547 -343461 -509140
832374495274230400 -252035 -338501 -343426 -509110
832374495292445824 -251941 -338398 -343334 -509079
832374495310661248 -251760 -338299 -343219 -509130
832374495328876544 -251630 -338271 -343255 -509123
832374495347091968 -251475 -338181 -343191 -509157
832374495365307392 -251456 -338203 -343223 -509199
832374495383522816 -251356 -338109 -343101 -509090
832374495401738240 -251376 -338138 -343182 -509155
832374495419953536 -251227 -338069 -343112 -509150
832374495438168960 -251270 -338106 -343146 -509169
832374495456384384 -251269 -338121 -343110 -509151
832374495474599808 -251382 -338132 -343117 -509166
832374495492815104 -251367 -338126 -343166 -509187
832374495511030528 -251167 -338033 -343099 -509092
832374495529245952 -251113 -337971 -343040 -509160
832374495547461376 -250945 -337912 -342971 -509134
832374495565676800 -250759 -337819 -342869 -509113
832374495583892096 -250553 -337719 -342798 -509122
832374495602107520 -250364 -337618 -342760 -509126
