TIMESTAMP PPG0 PPG1 PPG2 AMBIENT
832374582832291072 -254157 -320773 -336805 -509082
832374582850472832 -254155 -320707 -336761 -509118
832374582868654720 -254151 -320743 -336725 -509116
832374582886836480 -254034 -320715 -336760 -509115
832374582905018368 -254053 -320718 -336721 -509120
832374582923200128 -254016 -320700 -336706 -509055
832374582941382016 -254070 -320715 -336734 -509068
832374582959563776 -254161 -320780 -336725 -509076
832374582977745664 -254300 -320844 -336809 -509119
832374582995927424 -254246 -320787 -336774 -509108
832374583014109312 -254210 -320790 -336707 -509130
832374583032291072 -254126 -320751 -336705 -509104
832374583050472832 -254095 -320720 -336745 -509130
832374583068654720 -253986 -320687 -336707 -509119
832374583086836480 -253995 -320685 -336697 -509108
832374583105018368 -253971 -320648 -336698 -509136
832374583123200128 -254015 -320747 -336714 -509121
832374583141382016 -254179 -320795 -336777 -509189
832374583159563776 -254234 -320768 -336784 -509125
832374583177745664 -254236 -320902 -336842 -509134
832374583195927424 -254251 -320850 -336813 -509104
832374583214109312 -254117 -320761 -336762 -509114
832374583232291072 -254128 -320750 -336746 -509110
832374583250472832 -254039 -320712 -336691 -509088
832374583268654720 -254004 -320705 -336691 -509114
832374583286836480 -253983 -320734 -336663 -509109
832374583305018368 -254014 -320626 -336680 -509116
832374583323200128 -254087 -320698 -336717 -509114
832374583341382016 -254201 -320767 -336694 -509103
832374583359563776 -254302 -320773 -336736 -509097
832374583377745664 -254276 -320836 -336773 -509158
832374583395927424 -254240 -320805 -336721 -509137
832374583414109312 -254213 -320792 -336758 -509105
832374583432291072 -254221 -320766 -336722 -509153
832374583450472832 -254132 -320775 -336772 -509093
832374583468654720 -254087 -320751 -336822 -509132
832374583486836480 -253982 -320663 -336666 -509111
832374583505018368 -254005 -320688 -336695 -509121
832374583523200128 -254068 -320726 -336751 -509090
832374583541382016 -254158 -320808 -336792 -509120
832374583559563776 -254340 -320831 -336810 -509060
832374583577745624 -254310 -320833 -336795 -509081
832374583595959552 -254283 -320832 -336809 -509135
832374583614173440 -254092 -320791 -336755 -509126
832374583632387456 -254135 -320784 -336739 -509115
832374583650601344 -254146 -320741 -336796 -509159
832374583668815360 -254008 -320750 -336737 -509150
832374583687029248 -253950 -320663 -336691 -509104
832374583705243264 -254084 -320685 -336689 -509123
832374583723457152 -254200 -320782 -336789 -509154
832374583741671040 -254315 -320860 -336825 -509139
832374583759885056 -254366 -320890 -336868 -509174
832374583778098944 -254311 -320807 -336807 -509150
832374583796312960 -254298 -320795 -336827 -509130
832374583814526848 -254265 -320790 -336819 -509138
832374583832740736 -254175 -320765 -336787 -509114
832374583850954752 -254188 -320789 -336738 -509113
832374583869168640 -254063 -320722 -336767 -509145
832374583887382656 -254008 -320748 -336741 -509144
832374583905596544 -254097 -320705 -336695 -509101
832374583923810560 -254160 -320753 -336753 -509159
832374583942024448 -254246 -320809 -336796 -509131
832374583960238336 -254446 -320871 -336805 -509133
832374583978452352 -254320 -320839 -336796 -509136
832374583996666240 -254174 -320806 -336791 -509124
832374584014880256 -254197 -320832 -336788 -509156
832374584033094144 -254174 -320785 -336712 -509133
832374584051308032 -254112 -320792 -336792 -509121
832374584069522048 -254016 -320715 -336663 -509075
832374584087735936 -254036 -320719 -336673 -509134
832374584105949952 -254095 -320749 -336758 -509186
832374584124163840 -254169 -320768 -336810 -509204
832374584142377856 -254241 -320801 -336842 -509151
832374584160591744 -254234 -320852 -336814 -509126
832374584178805632 -254224 -320823 -336790 -509127
832374584197019648 -254197 -320835 -336785 -509190
832374584215233536 -254179 -320779 -336775 -509150
832374584233447552 -254127 -320747 -336768 -509145
832374584251661440 -254069 -320792 -336725 -509161
832374584269875456 -253946 -320704 -336717 -509122
832374584288089344 -254042 -320676 -336761 -509152
832374584306303232 -254103 -320675 -336748 -509128
832374584324517248 -254171 -320739 -336723 -509123
832374584342731174 -254316 -320804 -336773 -509097
832374584360945152 -254251 -320841 -336723 -509132
832374584379159168 -254258 -320836 -336779 -509098
832374584397373056 -254205 -320798 -336729 -509116
832374584415587072 -254150 -320802 -336707 -509141
832374584433801088 -254040 -320737 -336772 -509098
832374584452014976 -253971 -320731 -336760 -509125
832374584470228992 -253947 -320751 -336716 -509114
832374584488443008 -254064 -320712 -336681 -509079
832374584506656896 -254138 -320724 -336751 -509099
832374584524870912 -254255 -320809 -336757 -509052
832374584543084928 -254333 -320888 -336810 -509091
832374584561298816 -254274 -320880 -336768 -509126
832374584579512832 -254220 -320804 -336786 -509079
832374584597726848 -254139 -320751 -336765 -509133
832374584615940736 -254101 -320723 -336688 -509085
832374584634154752 -254060 -320677 -336681 -509084
832374584652368768 -254034 -320780 -336719 -509103
832374584670582784 -253992 -320679 -336722 -509090
832374584688796672 -254024 -320713 -336733 -509107
832374584707010688 -254163 -320758 -336770 -509128
832374584725224704 -254234 -320790 -336767 -509099
832374584743438592 -254394 -320834 -336840 -509116
832374584761652608 -254288 -320904 -336852 -509144
832374584779866624 -254231 -320897 -336801 -509096
832374584798080512 -254137 -320768 -336775 -509124
832374584816294528 -254077 -320675 -336728 -509100
832374584834508544 -254078 -320764 -336751 -509117
832374584852722432 -254064 -320695 -336767 -509122
832374584870936448 -254040 -320705 -336689 -509125
832374584889150464 -254056 -320721 -336670 -509070
832374584907364352 -254223 -320803 -336744 -509103
832374584925578368 -254272 -320817 -336801 -509089
832374584943792384 -254343 -320875 -336845 -509056
832374584962006272 -254295 -320826 -336794 -509050
832374584980220288 -254244 -320765 -336752 -509120
832374584998434304 -254085 -320754 -336714 -509004
832374585016648192 -254124 -320745 -336779 -509140
832374585034862208 -254048 -320651 -336694 -509104
832374585053076224 -253986 -320638 -336682 -509082
832374585071290112 -254008 -320660 -336718 -509086
832374585089504128 -254101 -320697 -336712 -509105
832374585107718144 -254208 -320736 -336750 -509081
832374585125932032 -254334 -320789 -336728 -509149
832374585144146060 -254311 -320839 -336751 -509074
832374585162359936 -254300 -320846 -336823 -509132
832374585180573824 -254211 -320800 -336759 -509114
832374585198787712 -254190 -320775 -336761 -509154
832374585217001600 -254118 -320737 -336814 -509106
832374585235215488 -254082 -320746 -336775 -509108
832374585253429376 -254059 -320702 -336718 -509060
832374585271643264 -254061 -320676 -336717 -509137
832374585289857152 -254134 -320752 -336724 -509145
832374585308071040 -254169 -320755 -336740 -509114
832374585326284928 -254340 -320902 -336802 -509114
832374585344498816 -254280 -320831 -336853 -509096
832374585362712704 -254266 -320784 -336763 -509087
832374585380926592 -254231 -320831 -336793 -509092
832374585399140480 -254178 -320757 -336770 -509059
832374585417354368 -254140 -320768 -336693 -509108
832374585435568256 -254054 -320660 -336698 -509052
832374585453782144 -254061 -320730 -336706 -509071
832374585471996032 -254140 -320701 -336768 -509128
832374585490209920 -254159 -320767 -336784 -509130
832374585508423808 -254259 -320808 -336808 -509099
832374585526637696 -254340 -320843 -336834 -509069
832374585544851584 -254300 -320860 -336827 -509111
832374585563065472 -254172 -320795 -336718 -509063
832374585581279360 -254109 -320765 -336726 -509075
832374585599493248 -254050 -320770 -336720 -509084
832374585617707136 -254082 -320795 -336790 -509121
832374585635921024 -254064 -320731 -336785 -509110
832374585654134912 -254042 -320770 -336803 -509089
832374585672348800 -254102 -320715 -336759 -509110
832374585690562688 -254170 -320733 -336782 -509133
832374585708776576 -254326 -320842 -336865 -509144
832374585726990464 -254439 -320882 -336839 -509121
832374585745204352 -254307 -320813 -336789 -509082
832374585763418240 -254276 -320814 -336748 -509064
832374585781632128 -254188 -320798 -336794 -509055
832374585799846016 -254171 -320830 -336808 -509102
832374585818059904 -254098 -320788 -336776 -509100
832374585836273792 -254047 -320719 -336772 -509107
832374585854487680 -254060 -320720 -336773 -509087
832374585872701568 -254083 -320758 -336775 -509123
832374585890915456 -254191 -320827 -336856 -509118
832374585909129344 -254339 -320889 -336862 -509148
832374585927343224 -254404 -320859 -336869 -509128
832374585945556608 -254283 -320855 -336877 -509145
832374585963769984 -254266 -320808 -336837 -509123
832374585981983360 -254185 -320772 -336728 -509067
832374586000196608 -254192 -320779 -336771 -509133
832374586018409984 -254089 -320744 -336787 -509154
832374586036623360 -254042 -320768 -336728 -509136
832374586054836736 -254042 -320688 -336748 -509097
832374586073050112 -254144 -320726 -336829 -509149
832374586091263360 -254181 -320797 -336772 -509081
832374586109476736 -254290 -320840 -336786 -509161
832374586127690112 -254291 -320870 -336792 -509109
832374586145903488 -254297 -320803 -336782 -509090
832374586164116864 -254209 -320792 -336773 -509100
832374586182330112 -254226 -320853 -336774 -509096
832374586200543488 -254081 -320770 -336691 -509033
832374586218756864 -253995 -320754 -336748 -509032
832374586236970240 -254042 -320757 -336760 -509055
832374586255183616 -254110 -320735 -336829 -509117
832374586273396864 -254169 -320769 -336830 -509138
832374586291610240 -254277 -320837 -336887 -509126
832374586309823616 -254368 -320891 -336811 -509073
832374586328036992 -254327 -320888 -336820 -509080
832374586346250368 -254324 -320907 -336824 -509148
832374586364463616 -254220 -320818 -336806 -509174
832374586382676992 -254173 -320856 -336848 -509152
832374586400890368 -254082 -320806 -336784 -509183
832374586419103744 -254031 -320741 -336703 -509140
832374586437317120 -254047 -320763 -336720 -509154
832374586455530368 -254111 -320751 -336774 -509080
832374586473743744 -254237 -320786 -336827 -509172
832374586491957120 -254281 -320773 -336790 -509099
832374586510170496 -254389 -320852 -336782 -509071
832374586528383872 -254349 -320836 -336810 -509069
832374586546597120 -254261 -320836 -336826 -509089
832374586564810496 -254180 -320749 -336742 -509068
832374586583023872 -254161 -320807 -336793 -509169
832374586601237248 -254115 -320809 -336807 -509110
832374586619450624 -253993 -320735 -336772 -509102
832374586637663872 -254002 -320660 -336725 -509091
832374586655877248 -254087 -320679 -336717 -509073
832374586674090624 -254168 -320785 -336754 -509085
832374586692304000 -254305 -320854 -336878 -509173
832374586710517376 -254348 -320887 -336838 -509132
832374586728730646 -254312 -320814 -336814 -509113
832374586746944640 -254290 -320852 -336812 -509073
832374586765158656 -254176 -320800 -336799 -509097
832374586783372544 -254129 -320785 -336779 -509122
832374586801586560 -254082 -320796 -336768 -509124
832374586819800576 -254020 -320694 -336758 -509117
832374586838014464 -254066 -320724 -336778 -509121
832374586856228480 -254184 -320795 -336807 -509117
832374586874442496 -254238 -320785 -336774 -509082
832374586892656384 -254353 -320829 -336811 -509116
832374586910870400 -254373 -320824 -336785 -509089
832374586929084416 -254277 -320881 -336775 -509089
832374586947298304 -254207 -320841 -336795 -509087
832374586965512320 -254175 -320821 -336765 -509136
832374586983726336 -254141 -320773 -336778 -509114
832374587001940224 -254148 -320741 -336748 -509125
832374587020154240 -254100 -320732 -336698 -509069
832374587038368256 -254086 -320649 -336693 -509096
832374587056582272 -254188 -320780 -336731 -509127
832374587074796160 -254190 -320779 -336748 -509113
832374587093010176 -254300 -320792 -336790 -509135
832374587111224192 -254334 -320850 -336796 -509052
832374587129438080 -254229 -320820 -336770 -509098
832374587147652096 -254226 -320774 -336755 -509133
832374587165866112 -254089 -320773 -336749 -509024
832374587184080000 -254111 -320782 -336719 -509091
832374587202294016 -254058 -320670 -336719 -509050
832374587220508032 -254084 -320662 -336757 -509045
832374587238721920 -254159 -320744 -336777 -509072
832374587256935936 -254196 -320791 -336805 -509141
832374587275149952 -254272 -320793 -336777 -509092
832374587293363840 -254402 -320855 -336768 -509075
832374587311577856 -254353 -320853 -336820 -509133
832374587329791872 -254309 -320788 -336807 -509104
832374587348005760 -254286 -320867 -336818 -509153
832374587366219776 -254162 -320783 -336748 -509127
832374587384433792 -254124 -320798 -336811 -509134
832374587402647680 -254090 -320743 -336681 -509103
832374587420861696 -254102 -320758 -336744 -509116
832374587439075712 -254115 -320824 -336771 -509073
832374587457289600 -254178 -320743 -336770 -509058
832374587475503616 -254258 -320797 -336757 -509127
832374587493717632 -254328 -320872 -336859 -509186
832374587511931520 -254308 -320866 -336802 -509092
832374587530145532 -254331 -320857 -336778 -509120
832374587548358784 -254224 -320799 -336762 -509117
832374587566572032 -254183 -320763 -336768 -509082
832374587584785152 -254126 -320842 -336793 -509168
832374587602998400 -254012 -320831 -336771 -509155
832374587621211648 -254050 -320703 -336752 -509116
832374587639424896 -254166 -320825 -336797 -509122
832374587657638016 -254231 -320801 -336779 -509103
832374587675851264 -254371 -320866 -336871 -509135
832374587694064512 -254343 -320819 -336775 -509014
832374587712277760 -254313 -320832 -336782 -509072
832374587730490880 -254219 -320867 -336845 -509094
832374587748704128 -254220 -320841 -336828 -509128
832374587766917376 -254157 -320818 -336783 -509155
832374587785130624 -254084 -320786 -336794 -509107
832374587803343744 -254036 -320695 -336726 -509135
832374587821556992 -254100 -320679 -336776 -509113
832374587839770240 -254137 -320749 -336725 -509086
832374587857983488 -254287 -320842 -336805 -509087
832374587876196608 -254362 -320887 -336837 -509107
832374587894409856 -254342 -320865 -336848 -509032
832374587912623104 -254288 -320866 -336821 -509077
832374587930836352 -254286 -320889 -336805 -509093
832374587949049472 -254482 -320991 -336855 -509114
832374587967262720 -254755 -321122 -336991 -509142
832374587985475968 -254872 -321275 -337036 -509052
832374588003689216 -255096 -321349 -337068 -509085
832374588021902336 -255334 -321443 -337155 -509121
832374588040115584 -255491 -321521 -337197 -509110
832374588058328832 -255696 -321582 -337249 -509166
832374588076542080 -255748 -321629 -337314 -509143
832374588094755200 -255664 -321650 -337258 -509109
832374588112968448 -255541 -321556 -337222 -509106
832374588131181696 -255420 -321465 -337211 -509091
832374588149394944 -255230 -321351 -337089 -509041
832374588167608064 -254884 -321176 -336956 -509104
832374588185821312 -254475 -321004 -336923 -509104
832374588204034560 -254259 -320868 -336800 -509108
832374588222247808 -254042 -320763 -336807 -509114
832374588240460928 -253956 -320671 -336744 -509114
832374588258674176 -253834 -320607 -336685 -509141
832374588276887424 -253734 -320500 -336692 -509176
832374588295100570 -253449 -320362 -336551 -509136
832374588313315200 -253230 -320250 -336513 -509119
832374588331529856 -253065 -320124 -336450 -509071
832374588349744512 -252938 -320072 -336395 -509099
832374588367959168 -252805 -320050 -336398 -509105
832374588386173824 -252670 -319981 -336335 -509106
832374588404388480 -252690 -320052 -336381 -509154
832374588422603264 -252749 -320065 -336365 -509175
832374588440817920 -252848 -320106 -336383 -509107
832374588459032576 -252938 -320063 -336413 -509115
832374588477247232 -252853 -320102 -336380 -509068
832374588495461888 -252759 -319989 -336347 -509152
832374588513676544 -252649 -319978 -336341 -509167
832374588531891200 -252499 -319881 -336271 -509059
832374588550105856 -252446 -319866 -336263 -509073
832374588568320512 -252234 -319742 -336219 -509151
832374588586535168 -251967 -319577 -336151 -509076
832374588604749952 -251768 -319473 -336119 -509105
832374588622964608 -251684 -319387 -336015 -509115
832374588641179264 -251577 -319319 -335992 -509128
832374588659393920 -251457 -319202 -335944 -509089
832374588677608576 -251183 -319073 -335845 -509212
832374588695823232 -250892 -318947 -335742 -509135
832374588714037888 -250583 -318822 -335715 -509173
832374588732252544 -250295 -318635 -335564 -509133
832374588750467200 -250306 -318636 -335575 -509183
832374588768681856 -250363 -318659 -335610 -509109
832374588786896640 -250634 -318779 -335703 -509180
832374588805111296 -250903 -318902 -335735 -509140
832374588823325952 -251340 -319187 -335949 -509120
832374588841540608 -251763 -319481 -336052 -509117
832374588859755264 -252330 -319704 -336241 -509100
832374588877969920 -252740 -319982 -336309 -509108
832374588896184576 -253137 -320180 -336463 -509103
832374588914399232 -253629 -320459 -336649 -509119
832374588932613888 -254024 -320672 -336772 -509102
832374588950828544 -254290 -320850 -336846 -509127
832374588969043200 -254567 -320977 -336882 -509140
832374588987257984 -254872 -321190 -337033 -509131
832374589005472634 -255134 -321341 -337119 -509113
832374589023686528 -255428 -321506 -337161 -509106
832374589041900416 -255652 -321560 -337255 -509093
832374589060114304 -255814 -321676 -337300 -509107
832374589078328192 -255769 -321684 -337351 -509119
832374589096541952 -255692 -321622 -337229 -509079
832374589114755840 -255535 -321526 -337194 -509065
832374589132969728 -255416 -321436 -337121 -509118
832374589151183616 -255197 -321345 -337030 -509100
832374589169397504 -254778 -321155 -336951 -509087
832374589187611392 -254495 -320944 -336858 -509065
832374589205825280 -254308 -320813 -336831 -509105
832374589224039040 -254180 -320677 -336802 -509070
832374589242252928 -254030 -320675 -336741 -509139
832374589260466816 -253786 -320539 -336666 -509057
832374589278680704 -253529 -320444 -336583 -509119
832374589296894592 -253271 -320307 -336492 -509039
832374589315108480 -253200 -320270 -336517 -509105
832374589333322240 -253069 -320173 -336454 -509131
832374589351536128 -252968 -320138 -336434 -509100
832374589369750016 -252836 -320067 -336349 -509093
832374589387963904 -252742 -320076 -336334 -509124
832374589406177792 -252803 -320056 -336341 -509093
832374589424391680 -252872 -320089 -336403 -509135
832374589442605568 -252963 -320135 -336359 -509096
832374589460819328 -252998 -320099 -336419 -509161
832374589479033216 -252949 -320072 -336381 -509125
832374589497247104 -252853 -320004 -336405 -509120
832374589515460992 -252776 -319965 -336331 -509096
832374589533674880 -252576 -319901 -336265 -509150
832374589551888768 -252387 -319792 -336239 -509117
832374589570102656 -252170 -319673 -336210 -509133
832374589588316416 -251993 -319605 -336129 -509123
832374589606530304 -251858 -319532 -336046 -509150
832374589624744192 -251744 -319479 -336042 -509135
832374589642958080 -251667 -319387 -335988 -509142
832374589661171968 -251338 -319192 -335933 -509120
832374589679385856 -251048 -319051 -335857 -509107
832374589697599744 -250720 -318888 -335746 -509099
832374589715813504 -250494 -318793 -335670 -509109
832374589734027392 -250286 -318715 -335616 -509105
832374589752241280 -250261 -318653 -335568 -509086
832374589770455132 -250382 -318727 -335619 -509136
832374589788668416 -250676 -318893 -335720 -509159
832374589806881664 -251023 -319073 -335794 -509121
832374589825095040 -251501 -319328 -335936 -509111
832374589843308288 -251976 -319609 -336077 -509163
832374589861521536 -252415 -319789 -336238 -509142
832374589879734912 -252803 -320040 -336329 -509127
832374589897948160 -253190 -320251 -336501 -509133
832374589916161408 -253573 -320470 -336605 -509138
832374589934374656 -254012 -320741 -336742 -509106
832374589952588032 -254366 -320851 -336820 -509121
832374589970801280 -254694 -321055 -336940 -509169
832374589989014528 -255044 -321246 -337069 -509167
832374590007227904 -255380 -321416 -337142 -509117
832374590025441152 -255631 -321570 -337228 -509132
832374590043654400 -255842 -321633 -337240 -509099
832374590061867776 -255806 -321694 -337244 -509099
832374590080081024 -255710 -321655 -337217 -509101
832374590098294272 -255601 -321611 -337266 -509126
832374590116507648 -255541 -321600 -337274 -509158
832374590134720896 -255401 -321471 -337194 -509073
832374590152934144 -255173 -321327 -337118 -509138
832374590171147520 -254836 -321164 -337008 -509125
832374590189360768 -254627 -321019 -336886 -509113
832374590207574016 -254433 -320999 -336864 -509117
832374590225787264 -254326 -320903 -336833 -509152
832374590244000640 -254093 -320762 -336769 -509142
832374590262213888 -253898 -320614 -336651 -509157
832374590280427136 -253676 -320501 -336670 -509195
832374590298640512 -253340 -320400 -336531 -509202
832374590316853760 -253211 -320295 -336420 -509128
832374590335067008 -253044 -320252 -336415 -509184
832374590353280384 -252956 -320154 -336431 -509157
832374590371493632 -252858 -320056 -336413 -509122
832374590389706880 -252856 -320081 -336415 -509152
832374590407920256 -252920 -320072 -336378 -509114
832374590426133504 -252980 -320107 -336394 -509152
832374590444346752 -253011 -320113 -336425 -509166
832374590462560000 -252956 -320106 -336464 -509104
832374590480773376 -252876 -320092 -336472 -509109
832374590498986624 -252814 -320014 -336399 -509113
832374590517199872 -252717 -319959 -336344 -509107
832374590535413216 -252594 -319938 -336335 -509116
832374590553627008 -252460 -319863 -336247 -509092
832374590571840768 -252244 -319751 -336243 -509106
832374590590054400 -252130 -319695 -336180 -509135
832374590608268160 -251973 -319553 -336114 -509155
832374590626481920 -251921 -319487 -336089 -509128
832374590644695680 -251631 -319376 -336010 -509082
832374590662909312 -251336 -319186 -335917 -509068
832374590681123072 -251007 -319062 -335799 -509152
832374590699336832 -250801 -318930 -335754 -509142
832374590717550464 -250531 -318754 -335675 -509182
832374590735764224 -250224 -318672 -335611 -509144
832374590753977984 -250273 -318653 -335609 -509115
832374590772191744 -250454 -318714 -335686 -509127
832374590790405376 -250834 -318991 -335724 -509150
832374590808619136 -251130 -319119 -335855 -509138
832374590826832896 -251636 -319398 -336032 -509108
832374590845046528 -252089 -319651 -336202 -509119
832374590863260288 -252396 -319836 -336245 -509080
832374590881474048 -252737 -320048 -336318 -509069
832374590899687808 -253241 -320325 -336490 -509068
832374590917901440 -253614 -320491 -336591 -509110
832374590936115200 -253993 -320705 -336755 -509125
832374590954328960 -254424 -320959 -336944 -509202
832374590972542592 -254808 -321129 -337028 -509179
832374590990756352 -255146 -321251 -337063 -509151
832374591008970112 -255472 -321480 -337223 -509183
832374591027183872 -255689 -321699 -337334 -509190
832374591045397504 -255783 -321703 -337287 -509133
832374591063611264 -255748 -321641 -337241 -509127
832374591081825024 -255692 -321653 -337329 -509172
832374591100038656 -255604 -321597 -337322 -509136
832374591118252416 -255432 -321494 -337199 -509088
832374591136466176 -255363 -321456 -337147 -509221
832374591154679936 -255109 -321380 -337049 -509142
832374591172893568 -254929 -321176 -336972 -509137
832374591191107328 -254740 -321054 -336937 -509162
832374591209321088 -254510 -320978 -336950 -509101
832374591227534720 -254275 -320891 -336792 -509139
832374591245748480 -254041 -320710 -336756 -509171
832374591263962240 -253780 -320574 -336642 -509133
832374591282176000 -253521 -320405 -336657 -509180
832374591300389610 -253321 -320326 -336561 -509153
832374591318603520 -253102 -320256 -336518 -509125
832374591336817408 -253012 -320102 -336409 -509116
832374591355031296 -252926 -320055 -336316 -509080
832374591373245184 -252906 -320051 -336424 -509130
832374591391459200 -252904 -320090 -336382 -509094
832374591409673088 -252980 -320158 -336425 -509079
832374591427886976 -252937 -320106 -336454 -509144
832374591446100864 -252907 -320105 -336382 -509132
832374591464314752 -252904 -320096 -336416 -509194
832374591482528640 -252756 -320058 -336340 -509131
832374591500742528 -252716 -320018 -336341 -509087
832374591518956416 -252569 -319949 -336314 -509138
832374591537170432 -252454 -319868 -336265 -509135
832374591555384320 -252448 -319892 -336272 -509184
832374591573598208 -252247 -319712 -336125 -509144
832374591591812096 -252118 -319648 -336145 -509128
832374591610025984 -251994 -319530 -336083 -509103
832374591628239872 -251807 -319484 -336031 -509131
832374591646453760 -251534 -319298 -335889 -509162
832374591664667776 -251237 -319221 -335876 -509096
832374591682881664 -250982 -319063 -335879 -509173
832374591701095552 -250673 -318819 -335733 -509137
832374591719309440 -250253 -318623 -335569 -509093
832374591737523328 -250185 -318618 -335532 -509099
832374591755737216 -250290 -318713 -335545 -509107
832374591773951104 -250544 -318781 -335626 -509094
832374591792165120 -250898 -318931 -335744 -509114
832374591810379008 -251289 -319183 -335908 -509084
832374591828592896 -251568 -319368 -335959 -509100
832374591846806784 -251932 -319598 -336046 -509075
832374591865020672 -252282 -319805 -336211 -509141
832374591883234560 -252708 -319964 -336313 -509133
832374591901448448 -253093 -320247 -336481 -509101
832374591919662336 -253470 -320434 -336630 -509084
832374591937876352 -254018 -320729 -336780 -509127
832374591956090240 -254482 -320965 -336916 -509100
832374591974304128 -254911 -321258 -337068 -509197
832374591992518016 -255264 -321477 -337150 -509176
832374592010731904 -255460 -321522 -337168 -509137
832374592028945824 -255599 -321580 -337234 -509132
832374592047159936 -255676 -321682 -337254 -509128
832374592065374080 -255643 -321633 -337273 -509115
832374592083588224 -255522 -321588 -337255 -509042
832374592101802368 -255473 -321572 -337209 -509064
832374592120016512 -255299 -321438 -337119 -509098
832374592138230784 -255183 -321373 -337069 -509127
832374592156444928 -255049 -321303 -337061 -509104
832374592174659072 -254822 -321204 -336967 -509106
832374592192873216 -254749 -321133 -336976 -509180
832374592211087360 -254512 -320939 -336904 -509124
832374592229301504 -254191 -320797 -336824 -509102
832374592247515648 -253981 -320681 -336710 -509113
832374592265729792 -253660 -320573 -336636 -509123
832374592283944064 -253441 -320429 -336589 -509106
832374592302158208 -253131 -320241 -336492 -509100
832374592320372352 -253007 -320147 -336418 -509087
832374592338586496 -253043 -320143 -336424 -509073
832374592356800640 -252937 -320085 -336434 -509045
832374592375014784 -253023 -320123 -336452 -509118
832374592393228928 -253043 -320146 -336435 -509134
832374592411443072 -252998 -320193 -336465 -509109
832374592429657344 -252915 -320115 -336392 -509056
832374592447871488 -252882 -320113 -336434 -509065
832374592466085632 -252781 -320040 -336385 -509071
832374592484299776 -252811 -320022 -336420 -509148
832374592502513920 -252662 -320018 -336333 -509133
832374592520728064 -252566 -319912 -336288 -509151
832374592538942208 -252446 -319777 -336239 -509093
832374592557156352 -252442 -319818 -336256 -509093
832374592575370624 -252387 -319742 -336273 -509158
832374592593584768 -252217 -319662 -336213 -509157
832374592611798912 -251971 -319604 -336112 -509085
832374592630013056 -251745 -319482 -336106 -509160
832374592648227200 -251446 -319317 -335936 -509119
832374592666441344 -251117 -319123 -335832 -509151
832374592684655488 -250845 -318990 -335770 -509127
832374592702869632 -250539 -318820 -335643 -509102
832374592721083904 -250391 -318681 -335613 -509089
832374592739298048 -250323 -318646 -335599 -509108
832374592757512192 -250421 -318741 -335614 -509125
832374592775726336 -250691 -318868 -335729 -509124
832374592793940530 -250997 -319072 -335856 -509117
832374592812154368 -251190 -319199 -335905 -509124
832374592830368256 -251548 -319376 -335999 -509201
832374592848582144 -251952 -319615 -336113 -509079
832374592866796032 -252351 -319830 -336234 -509122
832374592885009920 -252724 -320049 -336309 -509058
832374592903223808 -253143 -320220 -336441 -509074
832374592921437696 -253593 -320462 -336565 -509156
832374592939651584 -254115 -320713 -336697 -509105
832374592957865472 -254611 -321034 -336934 -509053
832374592976079360 -255112 -321266 -337055 -509089
832374592994293248 -255356 -321445 -337175 -509084
832374593012507136 -255493 -321538 -337205 -509126
832374593030721024 -255604 -321545 -337213 -509102
832374593048934912 -255640 -321642 -337251 -509122
832374593067148800 -255601 -321633 -337265 -509134
832374593085362688 -255501 -321530 -337194 -509041
832374593103576576 -255446 -321597 -337178 -509101
832374593121790464 -255294 -321478 -337179 -509126
832374593140004352 -255285 -321429 -337161 -509123
832374593158218240 -255170 -321347 -337133 -509142
832374593176432128 -254992 -321272 -337074 -509145
832374593194646016 -254736 -321104 -337022 -509108
832374593212859904 -254392 -320860 -336868 -509101
832374593231073792 -254117 -320739 -336793 -509106
832374593249287680 -253942 -320655 -336746 -509159
832374593267501568 -253666 -320554 -336675 -509098
832374593285715456 -253401 -320399 -336588 -509098
832374593303929344 -253133 -320226 -336422 -509094
832374593322143232 -253007 -320156 -336458 -509094
832374593340357120 -253085 -320175 -336496 -509092
832374593358570880 -253168 -320193 -336549 -509192
832374593376784768 -253198 -320186 -336480 -509130
832374593394998656 -253084 -320129 -336456 -509086
832374593413212544 -253003 -320095 -336405 -509079
832374593431426432 -252949 -320104 -336431 -509066
832374593449640320 -252905 -320134 -336414 -509120
832374593467854208 -252805 -320131 -336383 -509121
832374593486068096 -252692 -319987 -336311 -509090
832374593504282076 -252631 -319910 -336304 -509150
832374593522496000 -252623 -319926 -336327 -509118
832374593540709888 -252584 -319882 -336294 -509073
832374593558923648 -252555 -319822 -336293 -509125
832374593577137536 -252358 -319830 -336206 -509124
832374593595351424 -252062 -319630 -336168 -509101
832374593613565184 -251842 -319481 -336088 -509152
832374593631779072 -251691 -319457 -336039 -509150
832374593649992960 -251399 -319283 -335909 -509122
832374593668206720 -251091 -319077 -335818 -509113
832374593686420608 -250724 -318947 -335693 -509094
832374593704634496 -250497 -318827 -335626 -509120
832374593722848256 -250348 -318653 -335626 -509086
832374593741062144 -250414 -318662 -335615 -509154
832374593759275904 -250516 -318768 -335637 -509085
832374593777489792 -250759 -318878 -335733 -509108
832374593795703680 -250985 -318967 -335840 -509114
832374593813917440 -251152 -319160 -335881 -509121
832374593832131328 -251491 -319344 -335986 -509050
832374593850345216 -251876 -319583 -336093 -509026
832374593868558976 -252370 -319842 -336186 -509088
832374593886772864 -252751 -320042 -336385 -509101
832374593904986752 -253272 -320268 -336529 -509111
832374593923200512 -253747 -320500 -336657 -509087
832374593941414400 -254257 -320757 -336741 -509108
832374593959628288 -254717 -321091 -336917 -509096
832374593977842048 -255094 -321281 -337023 -509110
832374593996055936 -255330 -321428 -337129 -509111
832374594014269824 -255428 -321526 -337130 -509115
832374594032483584 -255566 -321564 -337239 -509154
832374594050697472 -255600 -321607 -337264 -509059
832374594068911360 -255518 -321521 -337261 -509099
832374594087125120 -255492 -321538 -337241 -509093
832374594105339008 -255435 -321553 -337232 -509103
832374594123552896 -255442 -321482 -337177 -509138
832374594141766656 -255361 -321430 -337215 -509091
832374594159980544 -255249 -321360 -337133 -509070
832374594178194286 -254933 -321245 -337078 -509144
832374594196408960 -254583 -321031 -336903 -509091
832374594214623616 -254306 -320855 -336801 -509101
832374594232838272 -254098 -320763 -336779 -509158
832374594251052928 -253883 -320638 -336749 -509097
832374594269267584 -253508 -320415 -336642 -509100
832374594287482240 -253314 -320291 -336485 -509105
832374594305697024 -253122 -320214 -336484 -509077
832374594323911680 -253145 -320219 -336443 -509133
832374594342126336 -253129 -320232 -336528 -509132
832374594360340992 -253113 -320237 -336468 -509077
832374594378555648 -252994 -320226 -336421 -509082
832374594396770304 -252952 -320107 -336400 -509099
832374594414984960 -252865 -320088 -336432 -509114
832374594433199616 -252864 -320076 -336342 -509122
832374594451414272 -252907 -320129 -336366 -509127
832374594469628928 -252722 -320046 -336321 -509069
832374594487843712 -252662 -319954 -336317 -509066
832374594506058368 -252624 -319933 -336309 -509100
832374594524273024 -252627 -319919 -336310 -509074
832374594542487680 -252698 -319884 -336312 -509053
832374594560702336 -252566 -319840 -336270 -509096
832374594578916992 -252257 -319723 -336200 -509088
832374594597131648 -252026 -319642 -336147 -509085
832374594615346304 -251828 -319539 -336095 -509134
832374594633560960 -251623 -319344 -335971 -509111
832374594651775616 -251390 -319282 -335943 -509104
832374594669990272 -251095 -319148 -335852 -509133
832374594688205056 -250745 -318913 -335712 -509137
832374594706419712 -250584 -318826 -335682 -509103
832374594724634368 -250470 -318752 -335618 -509141
832374594742849024 -250509 -318737 -335649 -509111
832374594761063680 -250649 -318781 -335641 -509096
832374594779278336 -250746 -318857 -335710 -509069
832374594797492992 -251023 -319001 -335797 -509080
832374594815707648 -251237 -319246 -335844 -509039
832374594833922304 -251602 -319387 -335984 -509077
832374594852136960 -252020 -319673 -336164 -509072
832374594870351744 -252474 -319901 -336289 -509097
832374594888566400 -252914 -320114 -336369 -509094
832374594906781018 -253420 -320406 -336501 -509109
832374594924994944 -253898 -320613 -336700 -509121
832374594943208832 -254417 -320912 -336874 -509140
832374594961422720 -254789 -321097 -336948 -509088
832374594979636480 -255075 -321260 -337080 -509087
832374594997850368 -255216 -321457 -337159 -509100
832374595016064256 -255451 -321546 -337228 -509106
832374595034278144 -255577 -321565 -337254 -509134
832374595052492032 -255518 -321542 -337201 -509134
832374595070705920 -255559 -321612 -337205 -509143
832374595088919680 -255578 -321591 -337199 -509101
832374595107133568 -255608 -321526 -337171 -509081
832374595125347456 -255584 -321554 -337262 -509120
832374595143561344 -255510 -321533 -337235 -509133
832374595161775232 -255258 -321354 -337120 -509125
832374595179989120 -254790 -321146 -336928 -509045
832374595198202880 -254522 -321112 -336934 -509142
832374595216416768 -254275 -320889 -336826 -509105
832374595234630656 -254010 -320752 -336674 -509019
832374595252844544 -253719 -320592 -336654 -509093
832374595271058432 -253538 -320510 -336655 -509126
832374595289272192 -253421 -320402 -336566 -509062
832374595307486080 -253338 -320339 -336481 -509092
832374595325699968 -253237 -320277 -336479 -509110
832374595343913856 -253159 -320253 -336489 -509067
832374595362127744 -253045 -320151 -336449 -509102
832374595380341632 -253003 -320158 -336488 -509119
832374595398555392 -252863 -320150 -336482 -509072
832374595416769280 -252911 -320134 -336504 -509120
832374595434983168 -252854 -320088 -336438 -509119
832374595453197056 -252789 -320035 -336407 -509144
832374595471410944 -252769 -319941 -336328 -509119
832374595489624704 -252798 -319967 -336377 -509064
832374595507838592 -252798 -320048 -336339 -509122
832374595526052480 -252723 -319967 -336284 -509064
832374595544266368 -252650 -319885 -336290 -509043
832374595562480256 -252479 -319857 -336273 -509060
832374595580694144 -252191 -319726 -336193 -509108
832374595598907896 -251941 -319563 -336045 -509096
832374595617122560 -251727 -319423 -336011 -509102
832374595635337216 -251501 -319324 -335951 -509123
832374595653551872 -251238 -319216 -335883 -509132
832374595671766528 -251057 -319151 -335812 -509139
832374595689981184 -250869 -318965 -335775 -509103
832374595708195840 -250726 -318867 -335751 -509087
832374595726410624 -250612 -318819 -335707 -509070
832374595744625280 -250501 -318734 -335665 -509105
832374595762839936 -250524 -318723 -335641 -509074
832374595781054592 -250678 -318830 -335714 -509034
832374595799269248 -250934 -318975 -335744 -509084
832374595817483904 -251237 -319147 -335882 -509097
832374595835698560 -251456 -319287 -335913 -509082
832374595853913216 -252028 -319600 -336125 -509091
832374595872127872 -252494 -319844 -336319 -509106
832374595890342528 -253071 -320180 -336459 -509084
832374595908557312 -253557 -320424 -336600 -509097
832374595926771968 -254037 -320661 -336742 -509134
832374595944986624 -254505 -320920 -336904 -509115
832374595963201280 -254809 -321103 -337015 -509153
832374595981415936 -254986 -321277 -337085 -509113
832374595999630592 -255174 -321400 -337173 -509091
832374596017845248 -255365 -321500 -337277 -509126
832374596036059904 -255486 -321524 -337260 -509101
832374596054274560 -255563 -321651 -337317 -509105
832374596072489216 -255662 -321626 -337250 -509073
832374596090703872 -255646 -321562 -337236 -509046
832374596108918656 -255715 -321643 -337263 -509107
832374596127133312 -255597 -321573 -337169 -509019
832374596145347968 -255390 -321467 -337170 -509051
832374596163562624 -255178 -321363 -337108 -509121
832374596181777280 -254836 -321212 -337045 -509149
832374596199991936 -254459 -321003 -336966 -509116
832374596218206592 -254206 -320847 -336863 -509135
832374596236421248 -253975 -320740 -336814 -509169
832374596254635904 -253841 -320636 -336704 -509124
832374596272850560 -253654 -320571 -336631 -509108
832374596291065344 -253572 -320454 -336642 -509156
832374596309279960 -253457 -320444 -336543 -509114
832374596327494656 -253340 -320407 -336597 -509155
832374596345709312 -253222 -320292 -336531 -509125
832374596363923968 -253088 -320219 -336432 -509074
832374596382138624 -252958 -320188 -336418 -509055
832374596400353280 -252916 -320107 -336408 -509070
832374596418567936 -252838 -320047 -336356 -509101
832374596436782720 -252730 -320085 -336367 -509070
832374596454997376 -252769 -320001 -336394 -509071
832374596473212032 -252891 -320092 -336435 -509074
832374596491426688 -252899 -320081 -336487 -509082
832374596509641344 -252894 -320046 -336464 -509047
832374596527856000 -252809 -320016 -336391 -509120
832374596546070656 -252587 -319885 -336270 -509075
832374596564285312 -252353 -319866 -336273 -509137
832374596582499968 -252092 -319697 -336183 -509088
832374596600714624 -251883 -319560 -336078 -509144
832374596618929408 -251595 -319445 -336075 -509151
832374596637144064 -251419 -319301 -335941 -509018
832374596655358720 -251295 -319234 -335948 -509100
832374596673573376 -251096 -319085 -335776 -509093
832374596691788032 -250925 -318975 -335782 -509105
832374596710002688 -250825 -318966 -335746 -509098
832374596728217344 -250504 -318785 -335616 -509131
832374596746432000 -250449 -318732 -335592 -509063
832374596764646656 -250507 -318769 -335622 -509045
832374596782861312 -250592 -318850 -335680 -509043
832374596801075968 -250902 -318957 -335785 -509107
832374596819290752 -251175 -319126 -335891 -509144
832374596837505408 -251536 -319270 -335993 -509077
832374596855720064 -252129 -319637 -336157 -509133
832374596873934720 -252643 -319935 -336321 -509098
832374596892149376 -253235 -320225 -336509 -509166
832374596910364032 -253684 -320546 -336614 -509100
832374596928578688 -253988 -320704 -336729 -509090
832374596946793344 -254397 -320901 -336864 -509092
832374596965008000 -254776 -321159 -337007 -509102
832374596983222656 -255058 -321366 -337142 -509087
832374597001437440 -255184 -321428 -337154 -509088
832374597019652024 -255365 -321487 -337178 -509089
832374597037865856 -255520 -321600 -337197 -509159
832374597056079744 -255614 -321661 -337275 -509109
832374597074293632 -255723 -321678 -337294 -509092
832374597092507520 -255742 -321689 -337302 -509090
832374597110721536 -255695 -321675 -337272 -509119
832374597128935424 -255589 -321621 -337234 -509138
832374597147149312 -255385 -321429 -337198 -509120
832374597165363200 -255074 -321283 -337097 -509138
832374597183577088 -254773 -321190 -337061 -509113
832374597201790976 -254442 -321003 -336953 -509099
832374597220004864 -254154 -320772 -336802 -509128
832374597238218752 -253990 -320682 -336783 -509156
832374597256432768 -253850 -320574 -336658 -509064
832374597274646656 -253714 -320483 -336711 -509081
832374597292860544 -253558 -320427 -336604 -509030
832374597311074432 -253423 -320343 -336555 -509104
832374597329288320 -253231 -320306 -336548 -509106
832374597347502208 -253065 -320219 -336442 -509042
832374597365716096 -252994 -320114 -336453 -509065
832374597383930112 -252836 -320062 -336370 -509046
832374597402144000 -252796 -320074 -336416 -509045
832374597420357888 -252724 -320019 -336368 -509070
832374597438571776 -252838 -320004 -336433 -509108
832374597456785664 -252900 -320100 -336439 -509101
832374597474999552 -252898 -320120 -336388 -509097
832374597493213440 -252892 -320079 -336456 -509091
832374597511427456 -252828 -320072 -336383 -509074
832374597529641344 -252715 -319998 -336353 -509083
832374597547855232 -252538 -319908 -336358 -509071
832374597566069120 -252333 -319828 -336285 -509063
832374597584283008 -252175 -319703 -336236 -509115
832374597602496896 -251812 -319556 -336166 -509138
832374597620710784 -251661 -319445 -336051 -509110
832374597638924672 -251464 -319243 -335970 -509098
832374597657138688 -251318 -319140 -335910 -509109
832374597675352576 -251197 -319102 -335836 -509109
832374597693566464 -251041 -319061 -335813 -509090
832374597711780352 -250745 -318840 -335743 -509090
832374597729994240 -250475 -318691 -335571 -509053
832374597748208238 -250434 -318705 -335567 -509067
832374597766422912 -250512 -318732 -335610 -509049
832374597784637568 -250679 -318855 -335666 -509050
832374597802852224 -250926 -319030 -335760 -509092
832374597821066880 -251186 -319063 -335842 -509091
832374597839281536 -251619 -319378 -336015 -509099
832374597857496192 -252201 -319682 -336199 -509113
832374597875710976 -252734 -320006 -336382 -509094
832374597893925632 -253169 -320259 -336526 -509054
832374597912140288 -253612 -320509 -336661 -509133
832374597930354944 -253968 -320700 -336758 -509039
832374597948569600 -254328 -320905 -336893 -509094
832374597966784256 -254691 -321131 -336917 -509071
832374597984998912 -254940 -321210 -337051 -509128
832374598003213568 -255176 -321342 -337136 -509143
832374598021428224 -255337 -321421 -337184 -509133
832374598039642880 -255506 -321540 -337215 -509079
832374598057857664 -255687 -321625 -337248 -509069
832374598076072320 -255847 -321676 -337300 -509106
832374598094286976 -255843 -321670 -337377 -509144
832374598112501632 -255708 -321633 -337320 -509122
832374598130716288 -255526 -321580 -337273 -509185
832374598148930944 -255295 -321387 -337142 -509109
832374598167145600 -254991 -321284 -337063 -509076
832374598185360256 -254612 -321055 -336973 -509053
832374598203574912 -254311 -320906 -336829 -509090
832374598221789568 -254150 -320810 -336838 -509103
832374598240004224 -253987 -320625 -336783 -509057
832374598258219008 -253902 -320666 -336774 -509085
832374598276433664 -253768 -320613 -336659 -509111
832374598294648320 -253604 -320471 -336574 -509106
832374598312862976 -253338 -320373 -336535 -509066
832374598331077632 -253170 -320218 -336488 -509063
832374598349292288 -253044 -320197 -336425 -509041
832374598367506944 -252904 -320131 -336430 -509085
832374598385721600 -252819 -320104 -336444 -509195
832374598403936256 -252730 -320044 -336348 -509069
832374598422150960 -252838 -320101 -336414 -509040
832374598440364800 -252883 -320103 -336458 -509065
832374598458578688 -253002 -320105 -336427 -509117
832374598476792576 -253030 -320118 -336414 -509038
832374598495006336 -252930 -320104 -336434 -509096
832374598513220224 -252718 -319996 -336344 -509080
832374598531434112 -252620 -319987 -336362 -509085
832374598549648000 -252483 -319865 -336302 -509041
832374598567861888 -252342 -319767 -336278 -509052
832374598586075776 -252043 -319609 -336146 -509041
832374598604289536 -251738 -319494 -336016 -509057
832374598622503424 -251655 -319413 -336024 -509104
832374598640717312 -251544 -319368 -335959 -509143
832374598658931200 -251358 -319192 -335907 -509071
832374598677145088 -251253 -319113 -335874 -509108
832374598695358976 -250924 -318999 -335788 -509047
832374598713572736 -250631 -318874 -335719 -509087
832374598731786624 -250351 -318766 -335674 -509107
832374598750000512 -250349 -318706 -335649 -509087
832374598768214400 -250482 -318777 -335660 -509049
832374598786428288 -250668 -318916 -335717 -509102
832374598804642048 -250941 -319059 -335865 -509108
832374598822855936 -251323 -319178 -335910 -509094
832374598841069824 -251749 -319472 -336023 -509098
832374598859283712 -252351 -319779 -336214 -509086
832374598877497600 -252831 -320072 -336362 -509053
832374598895711488 -253233 -320293 -336468 -509083
832374598913925248 -253592 -320501 -336642 -509102
832374598932139136 -254018 -320746 -336784 -509056
832374598950353024 -254373 -320945 -336862 -509107
832374598968566912 -254716 -321114 -336973 -509121
832374598986780800 -254985 -321329 -337098 -509115
832374599004994560 -255252 -321396 -337126 -509101
832374599023208448 -255494 -321496 -337214 -509122
832374599041422336 -255722 -321641 -337234 -509117
832374599059636224 -255919 -321773 -337316 -509109
832374599077850112 -255812 -321705 -337307 -509116
832374599096064000 -255722 -321692 -337350 -509152
832374599114277838 -255597 -321608 -337308 -509141
832374599132491776 -255451 -321550 -337221 -509125
832374599150705664 -255271 -321448 -337204 -509074
832374599168919552 -254866 -321233 -337052 -509050
832374599187133440 -254605 -321070 -336959 -509071
832374599205347456 -254345 -320945 -336850 -509099
832374599223561344 -254240 -320886 -336812 -509159
832374599241775232 -254103 -320729 -336754 -509067
832374599259989120 -254030 -320760 -336707 -509076
832374599278203008 -253730 -320631 -336685 -509103
832374599296416896 -253510 -320460 -336646 -509119
832374599314630784 -253242 -320315 -336555 -509105
832374599332844672 -253133 -320232 -336522 -509143
832374599351058688 -253063 -320175 -336476 -509106
832374599369272576 -252975 -320133 -336490 -509098
832374599387486464 -252883 -320097 -336432 -509135
832374599405700352 -252840 -320022 -336394 -509099
832374599423914240 -252914 -320076 -336443 -509101
832374599442128128 -253012 -320167 -336459 -509089
832374599460342016 -253042 -320216 -336449 -509108
832374599478556032 -252968 -320133 -336413 -509116
832374599496769920 -252865 -320058 -336397 -509079
832374599514983808 -252802 -320081 -336405 -509073
832374599533197696 -252606 -319986 -336349 -509116
832374599551411584 -252505 -319877 -336260 -509094
832374599569625472 -252222 -319755 -336188 -509101
832374599587839360 -252006 -319617 -336180 -509074
832374599606053376 -251937 -319559 -336121 -509124
832374599624267264 -251770 -319474 -336075 -509103
832374599642481152 -251693 -319373 -335995 -509093
832374599660695040 -251515 -319352 -336029 -509083
832374599678908928 -251212 -319130 -335849 -509101
832374599697122816 -250917 -318982 -335808 -509149
832374599715336704 -250582 -318844 -335715 -509113
832374599733550592 -250391 -318748 -335666 -509109
832374599751764608 -250386 -318727 -335656 -509066
832374599769978496 -250425 -318767 -335652 -509051
832374599788192384 -250742 -318899 -335770 -509122
832374599806406272 -251072 -319081 -335825 -509076
832374599824620160 -251460 -319291 -335923 -509074
832374599842834052 -252010 -319603 -336139 -509076
832374599861048064 -252460 -319875 -336285 -509118
832374599879262080 -252871 -320100 -336462 -509148
832374599897476224 -253283 -320336 -336548 -509096
832374599915690240 -253669 -320525 -336632 -509098
832374599933904256 -254035 -320752 -336829 -509138
832374599952118272 -254473 -320986 -336934 -509124
832374599970332416 -254687 -321144 -336993 -509093
832374599988546432 -255050 -321324 -337078 -509111
832374600006760448 -255317 -321395 -337222 -509099
832374600024974464 -255516 -321543 -337231 -509099
832374600043188608 -255747 -321644 -337288 -509101
832374600061402624 -255869 -321729 -337315 -509152
832374600079616640 -255746 -321650 -337308 -509042
832374600097830784 -255735 -321619 -337329 -509097
832374600116044800 -255590 -321524 -337224 -509049
832374600134258816 -255415 -321468 -337158 -509057
832374600152472832 -255113 -321348 -337151 -509109
832374600170686976 -254848 -321215 -336982 -509067
832374600188900992 -254613 -321102 -336900 -509059
832374600207115008 -254509 -320963 -336928 -509167
832374600225329024 -254306 -320850 -336778 -509144
832374600243543168 -254225 -320778 -336805 -509136
832374600261757184 -253961 -320594 -336666 -509103
832374600279971200 -253637 -320535 -336649 -509093
832374600298185216 -253459 -320380 -336562 -509165
832374600316399360 -253291 -320332 -336546 -509122
832374600334613376 -253091 -320262 -336514 -509102
832374600352827392 -252990 -320176 -336432 -509098
832374600371041536 -252889 -320108 -336443 -509092
832374600389255552 -252884 -320136 -336451 -509144
832374600407469568 -252884 -320065 -336370 -508996
832374600425683584 -252991 -320127 -336408 -509045
832374600443897728 -253084 -320187 -336461 -509073
832374600462111744 -252966 -320161 -336418 -509072
832374600480325760 -252878 -320075 -336382 -509096
832374600498539776 -252754 -320102 -336390 -509071
832374600516753920 -252648 -319972 -336296 -509119
832374600534967936 -252576 -319922 -336308 -509086
832374600553181952 -252396 -319840 -336307 -509081
832374600571396096 -252252 -319749 -336231 -509076
832374600589610112 -252071 -319657 -336177 -509080
832374600607824178 -251927 -319515 -336115 -509119
832374600626038784 -251892 -319487 -336104 -509121
832374600644253440 -251645 -319336 -336040 -509088
832374600662467968 -251427 -319303 -335956 -509066
832374600680682624 -251149 -319092 -335910 -509120
832374600698897152 -250774 -318912 -335747 -509114
832374600717111808 -250486 -318719 -335682 -509083
832374600735326336 -250301 -318684 -335639 -509090
832374600753540992 -250208 -318637 -335573 -509058
832374600771755520 -250477 -318789 -335640 -509121
832374600789970176 -250762 -318960 -335674 -509113
832374600808184704 -251201 -319122 -335855 -509068
832374600826399360 -251629 -319369 -335966 -509050
832374600844613888 -251991 -319600 -336111 -509067
832374600862828544 -252459 -319849 -336319 -509068
832374600881043072 -252876 -320044 -336442 -509097
832374600899257728 -253251 -320261 -336510 -509073
832374600917472256 -253651 -320539 -336670 -509059
832374600935686912 -253974 -320793 -336716 -509024
832374600953901568 -254372 -320928 -336924 -509087
832374600972116096 -254771 -321136 -337005 -509096
832374600990330752 -255094 -321338 -337018 -509083
832374601008545280 -255441 -321525 -337198 -509109
832374601026759936 -255715 -321665 -337258 -509128
832374601044974464 -255737 -321637 -337302 -509073
832374601063189120 -255849 -321768 -337322 -509121
832374601081403648 -255791 -321728 -337399 -509127
832374601099618304 -255662 -321654 -337323 -509092
832374601117832832 -255534 -321626 -337236 -509133
832374601136047488 -255244 -321432 -337179 -509066
832374601154262016 -255153 -321333 -337216 -509093
832374601172476672 -254958 -321163 -337073 -509109
832374601190691200 -254785 -321128 -337030 -509121
832374601208905856 -254581 -321043 -336927 -509075
832374601227120384 -254475 -320968 -336878 -509077
832374601245335040 -254187 -320773 -336813 -509108
832374601263549568 -253922 -320684 -336742 -509058
832374601281764224 -253622 -320487 -336595 -509071
832374601299978880 -253398 -320389 -336586 -509123
832374601318193408 -253218 -320277 -336566 -509056
832374601336408064 -253053 -320161 -336455 -509120
832374601354622592 -252998 -320166 -336426 -509094
832374601372837194 -252974 -320141 -336418 -509098
832374601391048960 -253035 -320161 -336391 -509126
832374601409260672 -253009 -320169 -336495 -509082
832374601427472384 -253091 -320181 -336531 -509068
832374601445684096 -253037 -320124 -336480 -509066
832374601463895808 -252979 -320152 -336511 -509034
832374601482107648 -252937 -320147 -336469 -509050
832374601500319360 -252814 -320114 -336450 -509114
832374601518531072 -252721 -320025 -336377 -509082
832374601536742784 -252542 -319985 -336324 -509084
832374601554954496 -252383 -319911 -336310 -509088
832374601573166208 -252258 -319729 -336215 -509052
832374601591377920 -252140 -319655 -336185 -509075
832374601609589632 -251999 -319596 -336138 -509111
832374601627801344 -251882 -319544 -336091 -509120
832374601646013056 -251640 -319421 -336015 -509065
832374601664224896 -251397 -319286 -335951 -509077
832374601682436608 -251050 -319152 -335887 -509069
832374601700648320 -250736 -318946 -335788 -509058
832374601718860032 -250552 -318869 -335722 -509087
832374601737071744 -250324 -318694 -335649 -509110
832374601755283456 -250408 -318757 -335720 -509148
832374601773495168 -250656 -318855 -335764 -509118
832374601791706880 -250970 -319039 -335855 -509106
832374601809918592 -251345 -319180 -336004 -509106
832374601828130432 -251658 -319406 -336062 -509097
832374601846342144 -252002 -319533 -336122 -509109
832374601864553856 -252444 -319860 -336280 -509133
832374601882765568 -252877 -320071 -336417 -509093
832374601900977280 -253242 -320272 -336531 -509052
832374601919188992 -253656 -320527 -336680 -509116
832374601937400704 -254071 -320729 -336776 -509080
832374601955612416 -254536 -320992 -336944 -509114
832374601973824128 -254925 -321218 -337100 -509124
832374601992035968 -255298 -321426 -337207 -509081
832374602010247680 -255589 -321585 -337255 -509099
832374602028459392 -255765 -321624 -337272 -509137
832374602046671104 -255816 -321688 -337289 -509100
832374602064882816 -255773 -321694 -337308 -509071
832374602083094528 -255684 -321581 -337278 -509089
832374602101306240 -255588 -321519 -337260 -509098
832374602119517952 -255398 -321402 -337246 -509091
832374602137729672 -255262 -321437 -337168 -509082
832374602155944320 -255118 -321317 -337076 -509047
832374602174158976 -254981 -321234 -337044 -509089
832374602192373632 -254791 -321142 -337018 -509081
832374602210588288 -254592 -321043 -336874 -509046
832374602228802944 -254309 -320835 -336865 -509020
832374602247017600 -254156 -320704 -336788 -509051
832374602265232384 -253756 -320633 -336773 -509109
832374602283447040 -253663 -320558 -336690 -509119
832374602301661696 -253432 -320419 -336564 -509102
832374602319876352 -253177 -320256 -336488 -509038
832374602338091008 -253113 -320215 -336466 -509077
832374602356305664 -252998 -320175 -336445 -509113
832374602374520320 -253054 -320155 -336450 -509073
832374602392734976 -253105 -320149 -336460 -509085
832374602410949632 -253078 -320166 -336498 -509116
832374602429164288 -253040 -320152 -336408 -509134
832374602447379072 -253101 -320136 -336447 -509063
832374602465593728 -253166 -320087 -336513 -509084
832374602483808384 -253060 -320069 -336438 -509155
832374602502023040 -252924 -320029 -336454 -509134
832374602520237696 -252787 -320005 -336388 -509123
832374602538452352 -252672 -319999 -336322 -509114
832374602556667008 -252531 -319964 -336344 -509143
832374602574881664 -252435 -319937 -336310 -509110
832374602593096320 -252309 -319823 -336231 -509151
832374602611310976 -252038 -319629 -336110 -509093
832374602629525760 -251831 -319539 -336115 -509103
832374602647740416 -251568 -319390 -336045 -509086
832374602665955072 -251340 -319233 -335889 -509120
832374602684169728 -250982 -319068 -335818 -509101
832374602702384384 -250644 -318859 -335747 -509049
832374602720599040 -250395 -318749 -335609 -509054
832374602738813696 -250315 -318641 -335640 -509024
832374602757028352 -250406 -318707 -335664 -509085
832374602775243008 -250696 -318801 -335707 -509086
832374602793457664 -251058 -319059 -335802 -509070
832374602811672320 -251338 -319184 -335956 -509109
832374602829887104 -251624 -319325 -336015 -509102
832374602848101736 -251940 -319516 -336132 -509071
832374602866316416 -252433 -319817 -336304 -509093
832374602884531072 -252866 -320124 -336451 -509050
832374602902745728 -253165 -320345 -336500 -508994
832374602920960384 -253621 -320569 -336671 -509070
832374602939175040 -254168 -320807 -336844 -509107
832374602957389696 -254669 -321043 -337015 -509133
832374602975604480 -255163 -321315 -337089 -509105
832374602993819136 -255442 -321548 -337246 -509099
832374603012033792 -255591 -321566 -337248 -509088
832374603030248448 -255667 -321641 -337222 -509088
832374603048463104 -255728 -321645 -337295 -509086
832374603066677760 -255825 -321617 -337336 -509116
832374603084892416 -255669 -321618 -337292 -509094
832374603103107072 -255511 -321584 -337222 -509062
832374603121321728 -255395 -321488 -337179 -509024
832374603139536384 -255283 -321432 -337138 -509028
832374603157751168 -255164 -321395 -337066 -509035
832374603175965824 -255056 -321252 -337064 -509070
832374603194180480 -254821 -321230 -337027 -509118
832374603212395136 -254460 -320959 -336852 -509045
832374603230609792 -254208 -320841 -336762 -509069
832374603248824448 -254042 -320724 -336797 -509110
832374603267039104 -253793 -320624 -336682 -509081
832374603285253760 -253469 -320436 -336609 -509103
832374603303468416 -253240 -320279 -336509 -509086
832374603321683072 -253097 -320236 -336452 -509049
832374603339897728 -253112 -320176 -336475 -509067
832374603358112512 -253074 -320151 -336426 -509066
832374603376327168 -253161 -320221 -336523 -509066
832374603394541824 -253131 -320194 -336518 -509050
832374603412756480 -252977 -320121 -336380 -509048
832374603430971136 -252916 -320079 -336377 -509116
832374603449185792 -252935 -320051 -336388 -509103
832374603467400448 -252891 -320024 -336421 -509145
832374603485615104 -252720 -320079 -336414 -509090
832374603503829760 -252660 -319925 -336352 -509069
832374603522044458 -252640 -319994 -336395 -509123
832374603540257024 -252665 -319949 -336382 -509174
832374603558469632 -252600 -319903 -336346 -509097
832374603576682240 -252522 -319833 -336258 -509117
832374603594894976 -252327 -319762 -336246 -509122
832374603613107584 -252007 -319617 -336164 -509072
832374603631320192 -251746 -319400 -336010 -509051
832374603649532800 -251560 -319370 -335999 -509063
832374603667745408 -251252 -319163 -335971 -509032
832374603685958144 -250899 -318994 -335798 -509084
832374603704170752 -250609 -318810 -335731 -509083
832374603722383360 -250415 -318733 -335728 -509102
832374603740595968 -250402 -318699 -335648 -509068
832374603758808576 -250610 -318849 -335703 -509121
832374603777021312 -250886 -318967 -335829 -509093
832374603795233920 -251132 -319101 -335913 -509148
832374603813446528 -251381 -319256 -336016 -509138
832374603831659136 -251664 -319418 -336049 -509077
832374603849871744 -252067 -319601 -336177 -509124
832374603868084480 -252498 -319920 -336325 -509121
832374603886297088 -252917 -320112 -336481 -509094
832374603904509696 -253368 -320383 -336609 -509120
832374603922722304 -253751 -320557 -336630 -509084
832374603940934912 -254323 -320886 -336847 -509126
832374603959147648 -254807 -321133 -337019 -509090
832374603977360256 -255178 -321409 -337127 -509161
832374603995572864 -255426 -321531 -337226 -509158
832374604013785472 -255578 -321581 -337260 -509118
832374604031998080 -255661 -321735 -337298 -509096
832374604050210816 -255673 -321649 -337325 -509110
832374604068423424 -255701 -321677 -337325 -509079
832374604086636032 -255596 -321710 -337291 -509069
832374604104848640 -255575 -321642 -337277 -509092
832374604123061248 -255600 -321594 -337205 -509087
832374604141273984 -255475 -321498 -337193 -509067
832374604159486592 -255344 -321426 -337142 -509082
832374604177699200 -255042 -321283 -337085 -509049
832374604195911808 -254748 -321115 -337008 -509110
832374604214124416 -254432 -320950 -336938 -509050
832374604232337172 -254219 -320769 -336876 -509127
832374604250550144 -254014 -320707 -336847 -509048
832374604268763136 -253797 -320588 -336729 -509111
832374604286976128 -253467 -320436 -336632 -509056
832374604305189120 -253310 -320361 -336558 -509131
832374604323402112 -253191 -320250 -336534 -509115
832374604341615104 -253276 -320309 -336586 -509100
832374604359828096 -253236 -320246 -336544 -509050
832374604378041088 -253148 -320202 -336514 -509082
832374604396254080 -253006 -320164 -336464 -509081
832374604414467072 -253005 -320096 -336435 -509120
832374604432680064 -252973 -320105 -336434 -509134
832374604450893056 -252997 -320122 -336499 -509120
832374604469106048 -252843 -320167 -336424 -509115
832374604487319040 -252771 -320044 -336442 -509144
832374604505532032 -252869 -319995 -336388 -509143
832374604523745024 -252742 -320021 -336391 -509100
832374604541958016 -252752 -320071 -336452 -509110
832374604560171008 -252669 -320002 -336383 -509067
832374604578384000 -252477 -319853 -336313 -509040
832374604596596992 -252145 -319657 -336208 -509058
832374604614809984 -251951 -319562 -336159 -509140
832374604633022976 -251698 -319406 -336057 -509071
832374604651235968 -251477 -319297 -336025 -509096
832374604669448960 -251186 -319177 -335870 -509138
832374604687661952 -250942 -319054 -335892 -509148
832374604705874944 -250717 -318907 -335825 -509150
832374604724087936 -250606 -318833 -335750 -509102
832374604742300928 -250551 -318791 -335721 -509154
832374604760513920 -250742 -318903 -335739 -509170
832374604778726912 -250890 -318975 -335814 -509100
832374604796939776 -251043 -319050 -335873 -509093
832374604815152768 -251325 -319311 -335902 -509145
832374604833365760 -251631 -319417 -336009 -509157
832374604851578752 -252033 -319643 -336124 -509098
832374604869791744 -252506 -319930 -336384 -509165
832374604888004736 -252955 -320123 -336435 -509107
832374604906217728 -253373 -320377 -336603 -509113
832374604924430720 -253843 -320680 -336754 -509130
832374604942643712 -254383 -320915 -336869 -509117
832374604960856766 -254833 -321208 -337022 -509092
832374604979069824 -255099 -321338 -337140 -509142
832374604997282944 -255340 -321444 -337185 -509103
832374605015496064 -255490 -321551 -337239 -509117
832374605033709312 -255600 -321651 -337300 -509082
832374605051922432 -255684 -321688 -337349 -509076
832374605070135552 -255654 -321609 -337341 -509106
832374605088348672 -255678 -321629 -337358 -509155
832374605106561792 -255667 -321634 -337307 -509148
832374605124774912 -255587 -321599 -337246 -509134
832374605142988160 -255507 -321508 -337210 -509090
832374605161201280 -255312 -321356 -337196 -509080
832374605179414400 -254952 -321210 -337080 -509067
832374605197627520 -254669 -321095 -337012 -509090
832374605215840640 -254296 -320925 -336877 -509071
832374605234053760 -254111 -320801 -336836 -509039
832374605252267008 -253807 -320719 -336740 -509054
832374605270480128 -253677 -320599 -336643 -509093
832374605288693248 -253529 -320477 -336671 -509074
832374605306906368 -253422 -320375 -336616 -509101
832374605325119488 -253364 -320312 -336595 -509084
832374605343332608 -253349 -320297 -336580 -509087
832374605361545856 -253235 -320257 -336513 -509032
832374605379758976 -253150 -320223 -336549 -509081
832374605397972096 -253084 -320203 -336513 -509083
832374605416185216 -252942 -320138 -336477 -509074
832374605434398336 -252891 -320123 -336454 -509085
832374605452611584 -252787 -320082 -336398 -509067
832374605470824704 -252771 -320030 -336417 -509062
832374605489037824 -252825 -320058 -336392 -509055
832374605507250944 -252884 -320084 -336409 -509086
832374605525464064 -252805 -320068 -336424 -509058
832374605543677184 -252723 -319973 -336299 -509000
832374605561890432 -252530 -319869 -336350 -509030
832374605580103552 -252307 -319728 -336245 -509066
832374605598316672 -252097 -319587 -336248 -509089
832374605616529792 -251846 -319509 -336070 -509074
832374605634742912 -251619 -319419 -336072 -509060
832374605652956032 -251336 -319223 -335953 -509103
832374605671169280 -251118 -319177 -335951 -509085
832374605689382400 -250949 -318993 -335839 -509093
832374605707595520 -250713 -318906 -335760 -509116
832374605725808746 -250630 -318804 -335716 -509101
832374605744021888 -250562 -318792 -335730 -509060
832374605762235008 -250674 -318823 -335688 -509100
832374605780448128 -250772 -318836 -335694 -509038
832374605798661376 -250987 -319056 -335781 -509050
832374605816874496 -251276 -319172 -335876 -509062
832374605835087616 -251582 -319419 -336003 -509120
832374605853300736 -252018 -319657 -336161 -509081
832374605871513856 -252497 -319818 -336343 -509086
832374605889726976 -253035 -320135 -336445 -509066
832374605907940224 -253589 -320463 -336632 -509093
832374605926153344 -254026 -320671 -336769 -509071
832374605944366464 -254560 -320970 -336899 -509126
832374605962579584 -254892 -321183 -337005 -509148
832374605980792704 -255150 -321383 -337103 -509106
832374605999005824 -255306 -321412 -337192 -509086
832374606017219072 -255448 -321511 -337232 -509086
832374606035432192 -255524 -321572 -337257 -509108
832374606053645312 -255590 -321574 -337258 -509101
832374606071858432 -255698 -321650 -337286 -509083
832374606090071552 -255718 -321666 -337302 -509079
832374606108284800 -255722 -321667 -337320 -509068
832374606126497920 -255677 -321623 -337320 -509081
832374606144711040 -255523 -321538 -337269 -509107
832374606162924160 -255249 -321419 -337149 -509091
832374606181137280 -254888 -321272 -337087 -509074
832374606199350400 -254602 -321111 -337022 -509094
832374606217563648 -254354 -320916 -336927 -509109
832374606235776768 -253984 -320718 -336748 -509080
832374606253989888 -253866 -320656 -336739 -509056
832374606272203008 -253675 -320537 -336724 -509071
832374606290416128 -253557 -320479 -336654 -509097
832374606308629248 -253432 -320403 -336619 -509106
832374606326842496 -253384 -320324 -336551 -509045
832374606345055616 -253152 -320289 -336459 -509049
832374606363268736 -253096 -320215 -336493 -509074
832374606381481856 -252974 -320147 -336454 -509038
832374606399695016 -252930 -320105 -336416 -509069
832374606417908608 -252894 -320083 -336437 -509092
832374606436122240 -252794 -320071 -336333 -509035
832374606454336000 -252841 -320073 -336434 -509042
832374606472549632 -252898 -320076 -336452 -509066
832374606490763392 -252923 -320187 -336492 -509079
832374606508977024 -252898 -320119 -336448 -509066
832374606527190784 -252849 -320154 -336446 -509076
832374606545404416 -252705 -320053 -336387 -509122
832374606563618176 -252491 -319938 -336319 -509100
832374606581831808 -252192 -319720 -336190 -509103
832374606600045568 -252017 -319659 -336205 -509103
832374606618259200 -251809 -319477 -336121 -509062
832374606636472832 -251509 -319359 -336040 -509104
832374606654686592 -251262 -319213 -335944 -509096
832374606672900224 -251156 -319130 -335850 -509131
832374606691113984 -250984 -319049 -335824 -509133
832374606709327616 -250771 -318924 -335753 -509110
832374606727541376 -250542 -318859 -335690 -509034
832374606745755008 -250521 -318828 -335737 -509105
832374606763968768 -250625 -318894 -335767 -509156
832374606782182400 -250725 -318956 -335784 -509117
832374606800396160 -250987 -319072 -335815 -509046
832374606818609792 -251314 -319203 -335949 -509120
832374606836823424 -251706 -319461 -336118 -509136
832374606855037184 -252132 -319694 -336161 -509122
832374606873250816 -252610 -319977 -336344 -509120
832374606891464576 -253178 -320273 -336452 -509104
832374606909678208 -253784 -320595 -336711 -509081
832374606927891968 -254127 -320793 -336844 -509107
832374606946105600 -254545 -320986 -336937 -509070
832374606964319360 -254744 -321164 -337033 -509083
832374606982532992 -255108 -321412 -337085 -509093
832374607000746752 -255298 -321486 -337179 -509063
832374607018960384 -255380 -321576 -337287 -509093
832374607037174016 -255453 -321606 -337284 -509071
832374607055387776 -255626 -321707 -337271 -509108
832374607073601408 -255729 -321693 -337360 -509070
832374607091815168 -255796 -321760 -337364 -509067
832374607110028934 -255823 -321768 -337384 -509128
832374607128241536 -255719 -321687 -337373 -509135
832374607146454144 -255407 -321473 -337134 -509121
832374607164666752 -255116 -321332 -337114 -509120
832374607182879360 -254768 -321149 -337006 -509113
832374607201091968 -254509 -321012 -336928 -509050
832374607219304576 -254134 -320867 -336865 -509123
832374607237517184 -253980 -320787 -336755 -509106
832374607255729792 -253825 -320597 -336710 -509080
832374607273942400 -253726 -320600 -336673 -509073
832374607292155008 -253624 -320522 -336630 -509100
832374607310367616 -253511 -320467 -336594 -509091
832374607328580224 -253393 -320353 -336572 -509088
832374607346792832 -253187 -320311 -336502 -509101
832374607365005440 -253060 -320266 -336480 -509074
832374607383218048 -252993 -320245 -336495 -509118
832374607401430656 -252996 -320146 -336460 -509118
832374607419643264 -252846 -320122 -336427 -509077
832374607437855872 -252840 -320159 -336420 -509118
832374607456068480 -252874 -320146 -336438 -509067
832374607474281088 -252944 -320149 -336476 -509071
832374607492493696 -253033 -320105 -336465 -509157
832374607510706304 -252891 -320144 -336420 -509134
832374607528918912 -252812 -320063 -336422 -509156
832374607547131520 -252607 -319921 -336340 -509099
832374607565344128 -252411 -319856 -336234 -509013
832374607583556736 -252249 -319772 -336239 -509077
832374607601769344 -251999 -319609 -336157 -509111
832374607619981952 -251738 -319499 -336086 -509105
832374607638194560 -251539 -319413 -336043 -509096
832374607656407168 -251431 -319272 -335947 -509137
832374607674619776 -251375 -319167 -335876 -509124
832374607692832384 -251138 -319105 -335847 -509128
832374607711044992 -250857 -318937 -335820 -509103
832374607729257600 -250563 -318832 -335763 -509118
832374607747470208 -250524 -318842 -335686 -509097
832374607765682816 -250561 -318828 -335682 -509046
832374607783895424 -250808 -318931 -335765 -509096
832374607802108032 -250959 -319042 -335845 -509089
832374607820320640 -251275 -319167 -335898 -509073
832374607838533266 -251719 -319413 -336115 -509071
832374607856745856 -252281 -319680 -336224 -509066
832374607874958464 -252844 -320011 -336392 -509045
832374607893171072 -253385 -320325 -336616 -509088
832374607911383680 -253810 -320476 -336744 -509064
832374607929596288 -254070 -320724 -336853 -509056
832374607947808896 -254524 -321024 -336999 -509114
832374607966021504 -254838 -321211 -337076 -509116
832374607984234112 -255101 -321370 -337159 -509145
832374608002446720 -255302 -321499 -337203 -509122
832374608020659328 -255401 -321539 -337228 -509089
832374608038871936 -255545 -321583 -337255 -509067
832374608057084544 -255698 -321626 -337307 -509080
832374608075297152 -255798 -321688 -337342 -509056
832374608093509760 -255938 -321772 -337367 -509072
832374608111722368 -255748 -321690 -337284 -509046
832374608129934976 -255573 -321618 -337244 -509039
832374608148147584 -255354 -321484 -337177 -509075
832374608166360192 -255020 -321284 -337070 -509032
832374608184572800 -254761 -321171 -337022 -509099
832374608202785408 -254414 -321010 -336923 -509045
832374608220998016 -254230 -320849 -336869 -509080
832374608239210624 -254039 -320752 -336789 -509109
832374608257423232 -253888 -320684 -336763 -509028
832374608275635840 -253775 -320560 -336705 -509054
832374608293848448 -253621 -320520 -336709 -509071
832374608312061056 -253393 -320437 -336619 -509121
832374608330273664 -253244 -320287 -336507 -509083
832374608348486272 -253136 -320276 -336533 -509163
832374608366698880 -253097 -320252 -336568 -509140
832374608384911488 -253001 -320190 -336521 -509117
832374608403124096 -252847 -320102 -336458 -509157
832374608421336704 -252842 -320118 -336419 -509045
832374608439549312 -252976 -320119 -336476 -509131
832374608457761920 -253052 -320099 -336502 -509116
832374608475974528 -253138 -320260 -336581 -509069
832374608494187136 -253084 -320229 -336504 -509079
832374608512399744 -252969 -320165 -336500 -509126
832374608530612352 -252797 -320102 -336437 -509143
832374608548824960 -252589 -320024 -336402 -509118
832374608567037598 -252447 -319887 -336313 -509081
832374608585249920 -252188 -319742 -336210 -509065
832374608603462272 -251850 -319602 -336189 -509114
832374608621674752 -251724 -319509 -336093 -509047
832374608639887104 -251636 -319372 -336048 -509064
832374608658099456 -251438 -319353 -335995 -509059
832374608676311936 -251259 -319199 -335934 -509033
832374608694524288 -251070 -319085 -335851 -509051
832374608712736768 -250813 -318966 -335762 -509032
832374608730949120 -250515 -318802 -335721 -509109
832374608749161472 -250473 -318769 -335727 -509115
832374608767373952 -250625 -318840 -335776 -509133
832374608785586304 -250830 -318981 -335849 -509141
832374608803798656 -251096 -319140 -335901 -509179
832374608822011136 -251363 -319272 -335995 -509120
832374608840223488 -251867 -319496 -336106 -509163
832374608858435968 -252310 -319808 -336277 -509076
832374608876648320 -252972 -320081 -336476 -509081
832374608894860672 -253373 -320397 -336597 -509100
832374608913073152 -253690 -320612 -336706 -509076
832374608931285504 -254089 -320832 -336816 -509067
832374608949497856 -254528 -321017 -336939 -509107
832374608967710336 -254802 -321209 -337016 -509109
832374608985922688 -255056 -321321 -337116 -509124
832374609004135040 -255229 -321450 -337232 -509054
832374609022347520 -255418 -321532 -337251 -509131
832374609040559872 -255675 -321636 -337339 -509097
832374609058772352 -255823 -321768 -337397 -509081
832374609076984704 -255909 -321782 -337376 -509066
832374609095197056 -255902 -321780 -337386 -509103
832374609113409536 -255750 -321658 -337366 -509123
832374609131621888 -255531 -321617 -337301 -509118
832374609149834240 -255339 -321471 -337246 -509143
832374609168046720 -255106 -321420 -337136 -509041
832374609186259072 -254715 -321148 -336987 -509104
832374609204471424 -254488 -321020 -336941 -509097
832374609222683904 -254304 -320910 -336925 -509158
832374609240896256 -254137 -320733 -336799 -509104
832374609259108736 -254013 -320673 -336750 -509124
832374609277321160 -253812 -320616 -336723 -509105
832374609295532800 -253594 -320439 -336667 -509092
832374609313744384 -253332 -320352 -336595 -509109
832374609331956096 -253170 -320266 -336498 -509051
832374609350167680 -253098 -320268 -336447 -509058
832374609368379264 -253013 -320209 -336435 -509019
832374609386590848 -252898 -320143 -336420 -509056
832374609404802560 -252872 -320154 -336426 -509031
832374609423014144 -252856 -320048 -336427 -509028
832374609441225728 -252972 -320137 -336476 -509023
832374609459437312 -253098 -320273 -336524 -509070
832374609477649024 -253059 -320207 -336458 -509086
832374609495860608 -252986 -320168 -336445 -509116
832374609514072192 -252830 -320065 -336401 -509036
832374609532283776 -252661 -319937 -336316 -509067
832374609550495488 -252545 -319926 -336288 -509098
832374609568707072 -252370 -319835 -336274 -509125
832374609586918656 -252119 -319637 -336200 -509085
832374609605130240 -251957 -319546 -336238 -509090
832374609623341952 -251852 -319483 -336122 -509087
832374609641553536 -251675 -319424 -336118 -509085
832374609659765120 -251625 -319400 -336043 -509077
832374609677976704 -251355 -319240 -335957 -509138
832374609696188416 -251013 -319067 -335841 -509156
832374609714400000 -250702 -318889 -335758 -509156
832374609732611584 -250498 -318774 -335673 -509128
832374609750823168 -250460 -318757 -335720 -509096
832374609769034880 -250485 -318907 -335841 -509150
832374609787246464 -250732 -319008 -335852 -509127
832374609805458048 -250984 -319071 -335841 -509122
832374609823669632 -251446 -319351 -336048 -509101
832374609841881344 -251927 -319532 -336147 -509109
832374609860092928 -252460 -319880 -336290 -509096
832374609878304512 -252935 -320123 -336444 -509059
832374609896516096 -253336 -320329 -336565 -509091
832374609914727808 -253699 -320524 -336655 -509041
832374609932939392 -254073 -320798 -336777 -509065
832374609951150976 -254508 -320994 -336879 -509070
832374609969362560 -254826 -321204 -337038 -509134
832374609987574204 -255116 -321389 -337166 -509114
832374610005786496 -255379 -321448 -337241 -509125
832374610023998848 -255567 -321565 -337324 -509113
832374610042211200 -255787 -321628 -337331 -509121
832374610060423552 -255960 -321827 -337418 -509162
832374610078635904 -255895 -321799 -337369 -509132
832374610096848256 -255787 -321704 -337357 -509103
832374610115060608 -255662 -321646 -337302 -509127
832374610133272960 -255505 -321579 -337243 -509132
832374610151485184 -255288 -321455 -337243 -509163
832374610169697536 -254961 -321224 -337123 -509042
832374610187909888 -254750 -321080 -336995 -509031
832374610206122240 -254452 -320979 -336925 -509048
832374610224334592 -254295 -320873 -336897 -509096
832374610242546944 -254262 -320848 -336847 -509135
832374610260759296 -254031 -320746 -336771 -509076
832374610278971648 -253841 -320632 -336755 -509056
832374610297184000 -253640 -320532 -336677 -509111
832374610315396352 -253370 -320372 -336675 -509122
832374610333608704 -253228 -320283 -336651 -509184
832374610351821056 -253059 -320267 -336494 -509055
832374610370033408 -253044 -320279 -336551 -509099
832374610388245760 -252961 -320176 -336516 -509140
832374610406457984 -253008 -320212 -336526 -509093
832374610424670336 -253035 -320198 -336550 -509107
832374610442882688 -253145 -320236 -336516 -509090
832374610461095040 -253126 -320287 -336528 -509108
832374610479307392 -253105 -320212 -336539 -509160
832374610497519744 -252968 -320219 -336480 -509114
832374610515732096 -252881 -320176 -336469 -509090
832374610533944448 -252746 -320109 -336429 -509132
832374610552156800 -252555 -319986 -336344 -509102
832374610570369152 -252340 -319885 -336260 -509128
832374610588581504 -252189 -319769 -336225 -509130
832374610606793856 -251968 -319631 -336147 -509082
832374610625006208 -251876 -319580 -336095 -509070
832374610643218560 -251801 -319520 -336115 -509148
832374610661430784 -251538 -319323 -335980 -509115
832374610679643136 -251207 -319225 -335903 -509075
832374610697855488 -250900 -319038 -335828 -509108
832374610716067840 -250692 -318872 -335781 -509111
832374610734280192 -250362 -318795 -335748 -509109
832374610752492614 -250447 -318843 -335756 -509097
832374610770705024 -250494 -318796 -335759 -509079
832374610788917376 -250847 -318954 -335811 -509079
832374610807129728 -251216 -319154 -335885 -509111
832374610825342080 -251607 -319375 -335990 -509064
832374610843554432 -252092 -319636 -336183 -509087
832374610861766784 -252534 -319917 -336340 -509099
832374610879979136 -252963 -320095 -336498 -509072
832374610898191488 -253372 -320402 -336650 -509073
832374610916403712 -253744 -320552 -336717 -509130
832374610934616064 -254089 -320796 -336844 -509076
832374610952828416 -254473 -320982 -337004 -509042
832374610971040768 -254833 -321134 -337053 -509080
832374610989253120 -255175 -321385 -337181 -509103
832374611007465472 -255466 -321538 -337266 -509142
832374611025677824 -255698 -321645 -337316 -509100
832374611043890176 -255906 -321804 -337368 -509124
832374611062102528 -255867 -321739 -337297 -509101
832374611080314880 -255864 -321786 -337396 -509105
832374611098527232 -255778 -321692 -337333 -509107
832374611116739584 -255614 -321665 -337311 -509062
832374611134951936 -255417 -321524 -337230 -509034
832374611153164288 -255159 -321312 -337198 -509076
832374611171376512 -254980 -321219 -337118 -509115
832374611189588864 -254731 -321125 -337048 -509075
832374611207801216 -254551 -321040 -337061 -509087
832374611226013568 -254382 -320925 -336968 -509060
832374611244225920 -254257 -320859 -336910 -509079
832374611262438272 -254067 -320770 -336803 -509100
832374611280650624 -253711 -320593 -336710 -509073
832374611298862976 -253408 -320454 -336617 -509120
832374611317075328 -253312 -320344 -336599 -509128
832374611335287680 -253157 -320260 -336519 -509135
832374611353500032 -253092 -320171 -336461 -509057
832374611371712384 -253003 -320150 -336472 -509051
832374611389924736 -253027 -320222 -336569 -509136
832374611408137088 -253084 -320243 -336581 -509107
832374611426349312 -253129 -320235 -336533 -509056
832374611444561664 -253151 -320278 -336528 -509098
832374611462774016 -253068 -320276 -336558 -509110
832374611480986368 -253063 -320189 -336524 -509088
832374611499198720 -252935 -320127 -336428 -509100
832374611517411024 -252768 -320039 -336407 -509110
832374611535623296 -252658 -319999 -336346 -509124
832374611553835520 -252498 -319901 -336385 -509149
832374611572047872 -252392 -319824 -336288 -509126
832374611590260096 -252275 -319710 -336240 -509109
832374611608472320 -252130 -319586 -336147 -509111
832374611626684672 -252026 -319612 -336175 -509136
832374611644896896 -251788 -319471 -336149 -509108
832374611663109248 -251501 -319359 -335992 -509065
832374611681321472 -251268 -319230 -335952 -509108
832374611699533696 -250883 -319021 -335853 -509099
832374611717746048 -250567 -318852 -335742 -509119
832374611735958272 -250367 -318731 -335693 -509050
832374611754170496 -250439 -318781 -335721 -509127
832374611772382848 -250651 -318887 -335721 -509126
832374611790595072 -250969 -319010 -335867 -509099
832374611808807296 -251282 -319234 -335921 -509048
832374611827019648 -251775 -319456 -336069 -509053
832374611845231872 -252133 -319664 -336217 -509087
832374611863444224 -252468 -319831 -336288 -509075
832374611881656448 -252910 -320133 -336437 -509060
832374611899868672 -253340 -320313 -336547 -509049
832374611918081024 -253728 -320582 -336725 -509066
832374611936293248 -254033 -320701 -336795 -509077
832374611954505472 -254476 -321013 -336968 -509101
832374611972717824 -254947 -321228 -337057 -509186
832374611990930048 -255313 -321426 -337140 -509088
832374612009142272 -255611 -321601 -337291 -509056
832374612027354624 -255739 -321711 -337349 -509028
832374612045566848 -255818 -321721 -337389 -509082
832374612063779200 -255843 -321736 -337453 -509120
832374612081991424 -255817 -321728 -337408 -509072
832374612100203648 -255703 -321696 -337397 -509131
832374612118416000 -255562 -321590 -337296 -509118
832374612136628224 -255385 -321483 -337216 -509133
832374612154840448 -255259 -321435 -337209 -509134
832374612173052800 -255022 -321287 -337136 -509127
832374612191265024 -254849 -321207 -337087 -509137
832374612209477248 -254647 -321059 -337025 -509125
832374612227689600 -254471 -320980 -336961 -509116
832374612245901824 -254245 -320793 -336818 -509120
832374612264114176 -253955 -320680 -336772 -509068
832374612282326384 -253700 -320548 -336753 -509091
832374612300538752 -253387 -320391 -336625 -509122
832374612318751104 -253185 -320327 -336539 -509102
832374612336963584 -253071 -320224 -336492 -509116
832374612355175936 -253023 -320159 -336482 -509131
832374612373388416 -253079 -320166 -336495 -509109
832374612391600768 -253147 -320222 -336544 -509082
832374612409813248 -253187 -320283 -336535 -509118
832374612428025600 -253183 -320216 -336550 -509069
832374612446238080 -253117 -320238 -336512 -509123
832374612464450432 -252978 -320181 -336416 -509122
832374612482662912 -253022 -320204 -336448 -509192
832374612500875264 -252909 -320153 -336431 -509138
832374612519087744 -252713 -320069 -336456 -509118
832374612537300096 -252631 -319954 -336415 -509142
832374612555512576 -252541 -319853 -336362 -509134
832374612573724928 -252418 -319876 -336362 -509109
832374612591937408 -252279 -319823 -336317 -509121
832374612610149760 -252174 -319716 -336236 -509154
832374612628362240 -251957 -319664 -336189 -509177
832374612646574592 -251741 -319520 -336086 -509138
832374612664787072 -251481 -319369 -335995 -509153
832374612682999424 -251104 -319130 -335927 -509073
832374612701211904 -250859 -318971 -335861 -509133
832374612719424256 -250541 -318753 -335712 -509157
832374612737636736 -250362 -318738 -335724 -509167
832374612755849088 -250439 -318777 -335651 -509060
832374612774061568 -250691 -318955 -335803 -509111
832374612792273920 -251068 -319116 -335851 -509024
832374612810486400 -251474 -319364 -335986 -509076
832374612828698752 -251687 -319443 -336081 -509050
832374612846911232 -252103 -319686 -336238 -509091
832374612865123584 -252530 -319888 -336352 -509025
832374612883336064 -253002 -320191 -336526 -509111
832374612901548416 -253393 -320480 -336636 -509119
832374612919760896 -253666 -320594 -336742 -509115
832374612937973248 -254089 -320800 -336838 -509089
832374612956185728 -254559 -321042 -336951 -509090
832374612974398080 -255043 -321243 -337052 -509066
832374612992610560 -255403 -321465 -337137 -509079
832374613010822912 -255616 -321625 -337228 -509087
832374613029035392 -255759 -321727 -337335 -509088
832374613047247854 -255838 -321781 -337355 -509120
832374613065460224 -255770 -321714 -337371 -509123
832374613083672576 -255711 -321708 -337354 -509103
832374613101884928 -255653 -321690 -337345 -509098
832374613120097280 -255518 -321634 -337278 -509085
832374613138309632 -255344 -321507 -337202 -509093
832374613156521984 -255249 -321449 -337186 -509139
832374613174734336 -255081 -321363 -337131 -509114
832374613192946688 -254933 -321267 -337077 -509123
832374613211158912 -254657 -321044 -336978 -509126
832374613229371264 -254408 -320971 -336948 -509106
832374613247583616 -254117 -320823 -336845 -509110
832374613265795968 -253858 -320718 -336770 -509071
832374613284008320 -253622 -320542 -336704 -509054
832374613302220672 -253444 -320466 -336658 -509094
832374613320433024 -253279 -320369 -336578 -509133
832374613338645376 -253211 -320310 -336617 -509123
832374613356857728 -253150 -320300 -336534 -509122
832374613375070080 -253222 -320293 -336633 -509155
832374613393282432 -253270 -320226 -336572 -509136
832374613411494784 -253229 -320221 -336536 -509145
832374613429707136 -253112 -320233 -336499 -509174
832374613447919488 -253061 -320216 -336526 -509148
832374613466131712 -253060 -320182 -336484 -509151
832374613484344064 -252948 -320149 -336412 -509165
832374613502556416 -252768 -320113 -336417 -509128
832374613520768768 -252696 -320028 -336385 -509144
832374613538981120 -252593 -320007 -336371 -509087
832374613557193472 -252548 -319876 -336296 -509128
832374613575405824 -252503 -319815 -336328 -509138
832374613593618176 -252362 -319847 -336319 -509094
832374613611830528 -252109 -319666 -336237 -509115
832374613630042880 -251856 -319594 -336135 -509077
832374613648255232 -251630 -319407 -336060 -509100
832374613666467584 -251359 -319254 -335964 -509128
832374613684679936 -251094 -319132 -335898 -509043
832374613702892288 -250754 -318916 -335841 -509113
832374613721104512 -250485 -318782 -335753 -509094
832374613739316864 -250353 -318705 -335639 -509060
832374613757529216 -250537 -318783 -335705 -509128
832374613775741568 -250855 -318952 -335806 -509081
832374613793953920 -251233 -319152 -335936 -509122
832374613812166264 -251455 -319306 -335981 -509125
832374613830377856 -251691 -319443 -336058 -509114
832374613848589440 -252063 -319663 -336144 -509090
832374613866801152 -252536 -319965 -336311 -509102
832374613885012736 -252892 -320132 -336407 -509051
832374613903224320 -253309 -320313 -336573 -509069
832374613921435904 -253700 -320584 -336719 -509057
832374613939647616 -254190 -320906 -336864 -509069
832374613957859200 -254698 -321170 -336991 -509086
832374613976070784 -255186 -321379 -337124 -509141
832374613994282368 -255490 -321538 -337252 -509123
832374614012494080 -255663 -321621 -337300 -509099
832374614030705664 -255617 -321614 -337300 -509105
832374614048917248 -255714 -321742 -337323 -509096
832374614067128832 -255749 -321725 -337367 -509080
832374614085340544 -255712 -321712 -337376 -509076
832374614103552128 -255588 -321598 -337346 -509077
832374614121763712 -255447 -321547 -337292 -509047
832374614139975296 -255463 -321505 -337329 -509093
832374614158187008 -255329 -321448 -337229 -509082
832374614176398592 -255164 -321335 -337137 -509101
832374614194610176 -254868 -321219 -337072 -509116
832374614212821760 -254543 -321037 -336962 -509101
832374614231033472 -254217 -320866 -336888 -509092
832374614249245056 -254051 -320778 -336814 -509079
832374614267456640 -253743 -320637 -336767 -509076
832374614285668224 -253527 -320561 -336693 -509032
832374614303879936 -253275 -320341 -336587 -509021
832374614322091520 -253206 -320256 -336526 -509046
832374614340303104 -253123 -320226 -336586 -509073
832374614358514688 -253196 -320300 -336531 -509060
832374614376726400 -253315 -320285 -336641 -509097
832374614394937984 -253224 -320308 -336622 -509091
832374614413149568 -253104 -320220 -336535 -509058
832374614431361152 -253089 -320242 -336565 -509119
832374614449572864 -253001 -320182 -336434 -509062
832374614467784448 -252940 -320175 -336415 -509036
832374614485996032 -252842 -320080 -336421 -509066
832374614504207616 -252777 -320012 -336409 -509067
832374614522419328 -252730 -319978 -336446 -509075
832374614540630912 -252709 -319937 -336359 -509069
832374614558842496 -252664 -319945 -336313 -509090
832374614577054156 -252545 -319938 -336325 -509067
832374614595265152 -252242 -319723 -336233 -509070
832374614613476096 -252052 -319654 -336140 -509082
832374614631686912 -251758 -319486 -336083 -509068
832374614649897856 -251516 -319403 -336002 -509073
832374614668108672 -251344 -319306 -335936 -509097
832374614686319616 -250959 -319063 -335787 -509051
832374614704530432 -250674 -318870 -335763 -509083
832374614722741376 -250502 -318739 -335704 -509094
832374614740952320 -250495 -318741 -335693 -509098
832374614759163136 -250688 -318798 -335728 -509043
832374614777374080 -250805 -318966 -335803 -509084
832374614795584896 -251054 -319091 -335895 -509088
832374614813795840 -251397 -319295 -335991 -509081
832374614832006784 -251661 -319436 -336101 -509042
832374614850217600 -252072 -319647 -336233 -509040
832374614868428544 -252503 -319949 -336304 -509104
832374614886639360 -252974 -320238 -336394 -509030
832374614904850304 -253395 -320396 -336553 -509059
832374614923061120 -253825 -320637 -336688 -509054
832374614941272064 -254287 -320870 -336871 -509090
832374614959483008 -254695 -321111 -337016 -509063
832374614977693824 -255158 -321384 -337106 -509077
832374614995904768 -255370 -321574 -337246 -509074
832374615014115584 -255527 -321583 -337234 -509055
832374615032326528 -255616 -321628 -337286 -509058
832374615050537344 -255645 -321704 -337373 -509098
832374615068748288 -255697 -321702 -337373 -509109
832374615086959232 -255696 -321673 -337325 -509116
832374615105170048 -255620 -321618 -337272 -509126
832374615123380992 -255518 -321536 -337193 -509057
832374615141591808 -255506 -321631 -337312 -509077
832374615159802752 -255406 -321512 -337206 -509069
832374615178013568 -255146 -321370 -337169 -509099
832374615196224512 -254816 -321216 -337064 -509067
832374615214435456 -254526 -321093 -337026 -509168
832374615232646272 -254208 -320951 -336878 -509109
832374615250857216 -254074 -320760 -336783 -509086
832374615269068032 -253774 -320560 -336681 -509063
832374615287278976 -253479 -320484 -336633 -509111
832374615305489920 -253325 -320328 -336601 -509160
832374615323700736 -253233 -320308 -336609 -509091
832374615341911530 -253168 -320303 -336562 -509053
832374615360123904 -253249 -320391 -336625 -509052
832374615378336256 -253190 -320331 -336582 -509113
832374615396548608 -253125 -320264 -336533 -509133
832374615414761088 -253037 -320257 -336566 -509142
832374615432973440 -253041 -320201 -336490 -509116
832374615451185792 -253024 -320194 -336553 -509081
832374615469398144 -252938 -320120 -336485 -509127
832374615487610624 -252893 -320117 -336501 -509104
832374615505822976 -252875 -320053 -336492 -509091
832374615524035328 -252790 -320057 -336431 -509145
832374615542247680 -252772 -320052 -336386 -509142
832374615560460032 -252758 -320053 -336404 -509077
832374615578672512 -252456 -319907 -336343 -509050
832374615596884864 -252165 -319734 -336213 -509107
832374615615097216 -251913 -319519 -336139 -509149
832374615633309568 -251695 -319517 -336068 -509051
832374615651521920 -251477 -319348 -336032 -509086
832374615669734400 -251192 -319200 -335885 -509069
832374615687946752 -250926 -319026 -335832 -509097
832374615706159104 -250652 -318857 -335729 -509054
832374615724371456 -250576 -318869 -335725 -509070
832374615742583936 -250608 -318830 -335695 -509054
832374615760796288 -250758 -318958 -335801 -509070
832374615779008640 -250851 -318970 -335789 -509065
832374615797220992 -251169 -319208 -335886 -509089
832374615815433344 -251444 -319266 -335964 -509080
832374615833645824 -251750 -319436 -336094 -509035
832374615851858176 -252149 -319729 -336179 -509099
832374615870070528 -252666 -319967 -336327 -509145
832374615888282880 -253052 -320211 -336464 -509072
832374615906495232 -253490 -320492 -336620 -509104
832374615924707712 -253981 -320679 -336755 -509080
832374615942920064 -254522 -321029 -336948 -509032
832374615961132416 -254908 -321252 -337069 -509054
832374615979344768 -255187 -321398 -337112 -509092
832374615997557248 -255332 -321478 -337229 -509024
832374616015769600 -255567 -321638 -337339 -509077
832374616033981952 -255644 -321654 -337400 -509046
832374616052194304 -255687 -321669 -337309 -509092
832374616070406708 -255651 -321622 -337279 -509098
832374616088619008 -255616 -321628 -337348 -509080
832374616106831360 -255608 -321616 -337315 -509039
832374616125043712 -255574 -321562 -337302 -508975
832374616143256064 -255601 -321550 -337270 -509077
832374616161468416 -255372 -321479 -337186 -509069
832374616179680768 -255143 -321291 -337158 -509074
832374616197893120 -254733 -321132 -337048 -509066
832374616216105472 -254424 -320932 -336923 -509023
832374616234317696 -254196 -320816 -336804 -509073
832374616252530048 -253905 -320730 -336771 -509122
832374616270742400 -253780 -320575 -336746 -509103
832374616288954752 -253547 -320446 -336651 -509019
832374616307167104 -253456 -320389 -336604 -509009
832374616325379456 -253324 -320311 -336590 -509070
832374616343591808 -253401 -320421 -336623 -509040
832374616361804160 -253251 -320352 -336532 -509030
832374616380016512 -253191 -320335 -336570 -509066
832374616398228864 -253047 -320246 -336539 -509071
832374616416441216 -253030 -320180 -336549 -509116
832374616434653568 -252991 -320129 -336471 -509138
832374616452865920 -252906 -320164 -336452 -509113
832374616471078272 -252870 -320181 -336450 -509074
832374616489290496 -252977 -320212 -336505 -509161
832374616507502848 -252891 -320167 -336479 -509088
832374616525715200 -252848 -320103 -336386 -509032
832374616543927552 -252928 -320118 -336462 -509071
832374616562139904 -252671 -319962 -336366 -509040
832374616580352256 -252486 -319898 -336349 -509093
832374616598564608 -252180 -319758 -336176 -509111
832374616616776960 -251958 -319580 -336178 -509119
832374616634989312 -251736 -319515 -336131 -509060
832374616653201664 -251428 -319348 -335991 -509058
832374616671414016 -251265 -319230 -335971 -509073
832374616689626368 -251046 -319099 -335932 -509131
832374616707838720 -250833 -319020 -335857 -509099
832374616726051072 -250662 -318885 -335779 -509057
832374616744263296 -250675 -318921 -335755 -509136
832374616762475648 -250749 -318949 -335781 -509079
832374616780688000 -250866 -318973 -335771 -509086
832374616798900352 -251050 -319145 -335879 -509117
832374616817112704 -251343 -319314 -336008 -509096
832374616835325118 -251641 -319430 -336100 -509048
832374616853536128 -252102 -319698 -336215 -509083
832374616871747200 -252577 -319927 -336325 -509096
832374616889958400 -253052 -320178 -336500 -509100
832374616908169472 -253658 -320499 -336740 -509133
832374616926380544 -254093 -320751 -336828 -509075
832374616944591616 -254526 -320963 -336958 -509108
832374616962802816 -254892 -321136 -337102 -509086
832374616981013888 -255179 -321352 -337183 -509109
832374616999224960 -255440 -321508 -337238 -509121
832374617017436160 -255507 -321562 -337219 -509073
832374617035647232 -255577 -321634 -337322 -509075
832374617053858304 -255640 -321627 -337232 -509105
832374617072069376 -255675 -321673 -337299 -509099
832374617090280576 -255780 -321671 -337321 -509141
832374617108491648 -255772 -321712 -337335 -509130
832374617126702720 -255749 -321696 -337331 -509022
832374617144913792 -255585 -321606 -337316 -509034
832374617163124992 -255323 -321427 -337231 -509091
832374617181336064 -254999 -321333 -337114 -509126
832374617199547136 -254669 -321141 -337033 -509140
832374617217758336 -254364 -320977 -336963 -509102
832374617235969408 -254082 -320783 -336847 -509087
832374617254180480 -253873 -320698 -336795 -509098
832374617272391552 -253627 -320524 -336743 -509030
832374617290602752 -253604 -320479 -336720 -509105
832374617308813824 -253522 -320474 -336675 -509114
832374617327024896 -253490 -320461 -336660 -509159
832374617345236096 -253365 -320317 -336605 -509050
832374617363447168 -253217 -320284 -336590 -509049
832374617381658240 -253077 -320226 -336470 -509046
832374617399869312 -253036 -320155 -336486 -509088
832374617418080512 -252958 -320087 -336466 -509062
832374617436291584 -252876 -320097 -336449 -509037
832374617454502656 -252858 -320051 -336453 -509038
832374617472713856 -253012 -320147 -336489 -509116
832374617490924928 -252957 -320127 -336454 -509088
832374617509136000 -252976 -320168 -336493 -509122
832374617527347072 -253044 -320108 -336498 -509080
832374617545558326 -252786 -320066 -336387 -509097
832374617563770368 -252609 -319950 -336374 -509111
832374617581982464 -252425 -319850 -336328 -509103
832374617600194688 -252039 -319646 -336192 -509046
832374617618406784 -251850 -319539 -336160 -509065
832374617636619008 -251600 -319381 -336036 -509104
832374617654831104 -251404 -319288 -335986 -509103
832374617673043328 -251263 -319218 -335992 -509106
832374617691255424 -251045 -319117 -335893 -509108
832374617709467648 -250922 -319029 -335878 -509071
832374617727679744 -250711 -318897 -335794 -509069
832374617745891840 -250603 -318956 -335801 -509127
832374617764104064 -250644 -318911 -335818 -509068
832374617782316160 -250823 -319001 -335859 -509138
832374617800528384 -251004 -319120 -335918 -509137
832374617818740480 -251370 -319270 -335989 -509066
832374617836952704 -251744 -319468 -336104 -509060
832374617855164800 -252131 -319779 -336260 -509102
832374617873377024 -252675 -319998 -336412 -509081
832374617891589120 -253184 -320283 -336592 -509080
832374617909801216 -253720 -320539 -336683 -509113
832374617928013440 -254149 -320802 -336826 -509068
832374617946225536 -254508 -320996 -337000 -509096
832374617964437760 -254870 -321229 -337079 -509094
832374617982649856 -255156 -321375 -337166 -509063
832374618000862080 -255422 -321548 -337288 -509106
832374618019074176 -255523 -321593 -337291 -509132
832374618037286400 -255579 -321605 -337270 -509083
832374618055498496 -255773 -321737 -337380 -509154
832374618073710592 -255895 -321763 -337384 -509117
832374618091922816 -255886 -321814 -337454 -509108
832374618110134912 -255933 -321785 -337521 -509159
832374618128347136 -255710 -321637 -337351 -509090
832374618146559232 -255541 -321574 -337287 -509125
832374618164771456 -255209 -321403 -337184 -509097
832374618182983552 -254921 -321216 -337131 -509084
832374618201195648 -254595 -321087 -337027 -509135
832374618219407974 -254224 -320965 -336947 -509154
832374618237620352 -254027 -320837 -336868 -509107
832374618255832704 -253901 -320703 -336773 -509101
832374618274045184 -253768 -320663 -336682 -509081
832374618292257536 -253750 -320519 -336715 -509031
832374618310469888 -253638 -320494 -336630 -509069
832374618328682368 -253504 -320410 -336584 -509106
832374618346894720 -253304 -320361 -336588 -509124
832374618365107200 -253154 -320237 -336515 -509093
832374618383319552 -253032 -320221 -336465 -509075
832374618401531904 -252960 -320176 -336448 -509037
832374618419744384 -252910 -320154 -336408 -509075
832374618437956736 -252900 -320114 -336431 -509143
832374618456169088 -252925 -320092 -336401 -509047
832374618474381568 -253009 -320157 -336449 -509053
832374618492593920 -253052 -320201 -336502 -509001
832374618510806400 -252986 -320135 -336435 -509014
832374618529018752 -252895 -320129 -336458 -509072
832374618547231104 -252725 -319996 -336380 -509072
832374618565443584 -252580 -319961 -336345 -509085
832374618583655936 -252352 -319800 -336281 -509067
832374618601868288 -252125 -319644 -336210 -509123
832374618620080768 -251820 -319553 -336108 -509059
832374618638293120 -251563 -319392 -336074 -509062
832374618656505472 -251437 -319301 -335964 -509083
832374618674717952 -251271 -319218 -335958 -509113
832374618692930304 -251111 -319162 -335921 -509083
832374618711142784 -250881 -318989 -335828 -509083
832374618729355136 -250575 -318827 -335677 -509040
832374618747567488 -250540 -318824 -335687 -509069
832374618765779968 -250640 -318869 -335773 -509049
832374618783992320 -250788 -318950 -335761 -509019
832374618802204672 -251066 -319109 -335887 -509046
832374618820417152 -251337 -319223 -335992 -509096
832374618838629504 -251749 -319435 -336083 -509115
832374618856841856 -252255 -319744 -336272 -509099
832374618875054336 -252777 -320064 -336447 -509107
832374618893266688 -253333 -320334 -336643 -509083
832374618911479168 -253749 -320554 -336746 -509079
832374618929691536 -254143 -320798 -336847 -509034
832374618947903488 -254513 -321052 -337025 -509090
832374618966115456 -254884 -321240 -337015 -509081
832374618984327424 -255181 -321410 -337212 -509088
832374619002539392 -255290 -321499 -337227 -509148
832374619020751360 -255433 -321590 -337273 -509105
832374619038963328 -255609 -321602 -337283 -509105
832374619057175424 -255845 -321759 -337427 -509149
832374619075387392 -255883 -321841 -337323 -509076
832374619093599360 -255974 -321847 -337321 -509042
832374619111811328 -255889 -321787 -337390 -509089
832374619130023296 -255655 -321627 -337290 -509054
832374619148235264 -255498 -321592 -337326 -509122
832374619166447232 -255150 -321399 -337171 -509071
832374619184659200 -254849 -321256 -337117 -509140
832374619202871168 -254495 -321008 -336955 -509111
832374619221083136 -254190 -320838 -336807 -509055
832374619239295104 -254117 -320788 -336821 -509114
832374619257507200 -253971 -320739 -336762 -509082
832374619275719168 -253878 -320687 -336756 -509072
832374619293931136 -253759 -320618 -336779 -509064
832374619312143104 -253515 -320432 -336652 -509068
832374619330355072 -253290 -320241 -336549 -509003
832374619348567040 -253213 -320254 -336533 -509023
832374619366779008 -253145 -320297 -336537 -509076
832374619384990976 -253086 -320199 -336453 -509080
832374619403202944 -252973 -320139 -336422 -509132
832374619421414912 -252948 -320172 -336495 -509108
832374619439626880 -252982 -320136 -336464 -509124
832374619457838976 -253054 -320165 -336455 -509113
832374619476050944 -253117 -320228 -336536 -509085
832374619494262912 -253069 -320295 -336520 -509121
832374619512474880 -252946 -320148 -336476 -509055
832374619530686848 -252852 -320074 -336453 -509073
832374619548898816 -252620 -320001 -336388 -509021
832374619567110784 -252431 -319913 -336300 -509077
832374619585322752 -252277 -319778 -336263 -509116
832374619603534720 -251953 -319601 -336156 -509021
832374619621746688 -251747 -319527 -336107 -509028
832374619639958656 -251578 -319364 -336062 -509094
832374619658170752 -251472 -319283 -336025 -509098
832374619676382720 -251321 -319281 -335922 -509107
832374619694594686 -251080 -319078 -335831 -509011
832374619712805120 -250810 -318924 -335775 -509006
832374619731015552 -250545 -318819 -335695 -509073
832374619749225984 -250504 -318796 -335674 -509031
832374619767436416 -250676 -318852 -335838 -509098
832374619785646720 -250858 -319026 -335803 -509074
832374619803857152 -251130 -319105 -335828 -509080
832374619822067584 -251504 -319329 -335974 -509123
832374619840278016 -251933 -319571 -336106 -509099
832374619858488448 -252450 -319861 -336291 -509048
832374619876698880 -253003 -320156 -336479 -508981
832374619894909184 -253379 -320373 -336619 -509030
832374619913119616 -253784 -320561 -336746 -509051
832374619931330048 -254060 -320792 -336820 -509022
832374619949540480 -254500 -321053 -337027 -509012
832374619967750912 -254953 -321229 -337091 -509103
832374619985961344 -255134 -321388 -337166 -509088
832374620004171648 -255294 -321452 -337217 -509035
832374620022382080 -255494 -321522 -337294 -509050
832374620040592512 -255707 -321610 -337318 -509040
832374620058802944 -255918 -321794 -337383 -509087
832374620077013376 -256030 -321821 -337420 -509086
832374620095223808 -255936 -321750 -337409 -509069
832374620113434240 -255749 -321696 -337325 -509029
832374620131644544 -255560 -321633 -337297 -509024
832374620149854976 -255366 -321507 -337268 -509050
832374620168065408 -255134 -321312 -337133 -509058
832374620186275840 -254787 -321180 -337115 -509074
832374620204486272 -254509 -321021 -336991 -509057
832374620222696704 -254253 -320922 -336899 -509070
832374620240907008 -254111 -320766 -336833 -509091
832374620259117440 -253984 -320698 -336824 -509080
832374620277327872 -253893 -320665 -336774 -509052
832374620295538304 -253657 -320497 -336639 -509013
832374620313748736 -253478 -320459 -336621 -509096
832374620331959168 -253272 -320358 -336594 -509071
832374620350169600 -253133 -320321 -336540 -509065
832374620368379904 -253109 -320276 -336511 -509049
832374620386590338 -252978 -320168 -336509 -509063
832374620404801152 -252943 -320191 -336493 -509130
832374620423011968 -252939 -320141 -336463 -509065
832374620441222784 -253001 -320110 -336443 -509063
832374620459433472 -253113 -320180 -336488 -509054
832374620477644288 -253081 -320240 -336490 -509134
832374620495855104 -253012 -320241 -336519 -509089
832374620514065920 -252845 -320099 -336384 -509055
832374620532276736 -252717 -320040 -336388 -509073
832374620550487424 -252604 -319925 -336347 -509075
832374620568698240 -252393 -319858 -336279 -509023
832374620586909056 -252184 -319776 -336254 -509062
832374620605119872 -251969 -319589 -336124 -509053
832374620623330688 -251856 -319613 -336143 -509125
832374620641541504 -251724 -319505 -336076 -509091
832374620659752192 -251584 -319417 -336039 -509087
832374620677963008 -251323 -319229 -335976 -509065
832374620696173824 -251031 -319041 -335824 -509040
832374620714384640 -250726 -318903 -335793 -509089
832374620732595456 -250485 -318760 -335688 -509042
832374620750806144 -250444 -318816 -335680 -509134
832374620769016960 -250563 -318838 -335712 -509083
832374620787227776 -250771 -318963 -335727 -509093
832374620805438592 -251023 -319182 -335929 -509060
832374620823649408 -251484 -319321 -336039 -509074
832374620841860096 -251974 -319606 -336188 -509066
832374620860070912 -252491 -319920 -336316 -509036
832374620878281728 -252985 -320158 -336512 -509097
832374620896492544 -253269 -320362 -336577 -509084
832374620914703360 -253652 -320576 -336669 -509086
832374620932914176 -254094 -320782 -336814 -509047
832374620951124864 -254530 -321051 -336953 -509067
832374620969335680 -254808 -321212 -337049 -509116
832374620987546496 -255101 -321397 -337097 -509060
832374621005757312 -255365 -321502 -337234 -509140
832374621023968128 -255609 -321657 -337299 -509091
832374621042178816 -255797 -321705 -337365 -509058
832374621060389632 -255969 -321770 -337437 -509035
832374621078600448 -255919 -321741 -337431 -509064
832374621096811264 -255819 -321752 -337420 -509090
832374621115022208 -255608 -321659 -337311 -508987
832374621133233024 -255454 -321479 -337261 -509021
832374621151443840 -255362 -321429 -337232 -509059
832374621169654656 -254918 -321245 -337091 -509051
832374621187865600 -254668 -321113 -336987 -509060
832374621206076416 -254436 -321008 -336916 -509083
832374621224287232 -254293 -320881 -336895 -509101
832374621242498176 -254215 -320851 -336893 -509105
832374621260708992 -254120 -320726 -336869 -509096
832374621278919808 -253812 -320611 -336699 -509115
832374621297130752 -253566 -320462 -336617 -509093
832374621315341568 -253320 -320391 -336535 -509004
832374621333552384 -253268 -320366 -336538 -509037
832374621351763200 -253213 -320326 -336541 -509047
832374621369974144 -253081 -320228 -336560 -509134
832374621388184960 -253023 -320223 -336480 -509104
832374621406395776 -252985 -320182 -336461 -509076
832374621424606720 -253052 -320227 -336432 -509132
832374621442817536 -253155 -320240 -336494 -509068
832374621461028352 -253115 -320244 -336539 -509065
832374621479239168 -253093 -320202 -336468 -509034
832374621497450112 -252996 -320177 -336415 -509049
832374621515660928 -252907 -320140 -336460 -509064
832374621533871744 -252722 -320052 -336354 -509040
832374621552082688 -252558 -319971 -336350 -509097
832374621570293504 -252324 -319810 -336283 -509080
832374621588504320 -252075 -319679 -336146 -509015
832374621606715264 -252017 -319614 -336189 -509064
832374621624926080 -251865 -319544 -336125 -509041
832374621643136896 -251825 -319483 -336122 -509085
832374621661347712 -251523 -319333 -336010 -509020
832374621679558656 -251236 -319155 -335971 -509067
832374621697769472 -250988 -318975 -335859 -509087
832374621715980288 -250646 -318825 -335715 -509058
832374621734191232 -250448 -318727 -335690 -509059
832374621752402048 -250467 -318685 -335687 -509060
832374621770612864 -250609 -318810 -335743 -509076
832374621788823774 -250902 -318990 -335842 -509088
832374621807035392 -251180 -319186 -335930 -509082
832374621825246976 -251539 -319361 -336046 -509124
832374621843458688 -252086 -319703 -336224 -509042
832374621861670272 -252494 -319929 -336308 -509067
832374621879881856 -252920 -320222 -336422 -509060
832374621898093440 -253361 -320417 -336604 -509071
832374621916305152 -253754 -320607 -336739 -509024
832374621934516736 -254088 -320805 -336834 -509047
832374621952728320 -254524 -321062 -337009 -509127
832374621970939904 -254823 -321163 -337030 -509043
832374621989151616 -255132 -321312 -337119 -509105
832374622007363200 -255451 -321497 -337233 -509091
832374622025574784 -255687 -321663 -337363 -509030
832374622043786368 -255894 -321784 -337406 -509099
832374622061998080 -255971 -321841 -337427 -509106
832374622080209664 -255949 -321814 -337437 -509077
832374622098421248 -255798 -321730 -337403 -509081
832374622116632832 -255580 -321632 -337353 -509110
832374622134844544 -255452 -321552 -337305 -509081
832374622153056128 -255264 -321501 -337226 -509098
832374622171267712 -255040 -321313 -337186 -509110
832374622189479296 -254777 -321216 -337052 -509082
832374622207691008 -254611 -321057 -337018 -509107
832374622225902592 -254417 -320952 -336953 -509086
832374622244114176 -254277 -320849 -336894 -509088
832374622262325760 -254015 -320734 -336790 -509120
832374622280537472 -253739 -320562 -336607 -509037
832374622298749056 -253578 -320485 -336647 -509065
832374622316960640 -253349 -320462 -336616 -509106
832374622335172224 -253169 -320351 -336574 -509097
832374622353383936 -253114 -320298 -336579 -509076
832374622371595520 -253037 -320209 -336470 -509066
832374622389807104 -253077 -320216 -336466 -509088
832374622408018688 -253100 -320204 -336541 -509074
832374622426230400 -253142 -320275 -336509 -509053
832374622444441984 -253135 -320218 -336521 -509053
832374622462653576 -253040 -320202 -336478 -509051
832374622480866560 -253017 -320181 -336497 -509019
832374622499079552 -252910 -320152 -336465 -509025
832374622517292672 -252760 -320067 -336432 -508996
832374622535505664 -252614 -320014 -336402 -509018
832374622553718656 -252440 -319859 -336373 -509050
832374622571931776 -252349 -319714 -336291 -509035
832374622590144768 -252251 -319665 -336272 -509090
832374622608357760 -252124 -319642 -336231 -509069
832374622626570880 -252009 -319600 -336208 -509056
832374622644783872 -251702 -319403 -336090 -509018
832374622662996864 -251504 -319287 -336055 -509054
832374622681209984 -251278 -319196 -335954 -509155
832374622699422976 -250901 -318960 -335817 -509062
832374622717635968 -250649 -318824 -335738 -509049
832374622735849088 -250375 -318716 -335653 -509069
832374622754062080 -250395 -318690 -335680 -509059
832374622772275072 -250591 -318853 -335759 -509053
832374622790488192 -250952 -319029 -335868 -509071
832374622808701184 -251401 -319203 -335968 -509055
832374622826914176 -251819 -319455 -336121 -509090
832374622845127168 -252143 -319692 -336207 -509077
832374622863340288 -252649 -319918 -336375 -509157
832374622881553280 -252966 -320167 -336498 -509099
832374622899766272 -253338 -320357 -336636 -509127
832374622917979392 -253694 -320582 -336698 -509068
832374622936192384 -254000 -320756 -336830 -509154
832374622954405376 -254496 -321058 -337008 -509153
832374622972618496 -254909 -321235 -337095 -509045
832374622990831488 -255221 -321355 -337160 -509090
832374623009044480 -255611 -321587 -337326 -509071
832374623027257600 -255860 -321726 -337351 -509092
832374623045470592 -255899 -321758 -337369 -509100
832374623063683584 -255869 -321753 -337326 -509079
832374623081896704 -255846 -321764 -337345 -509060
832374623100109696 -255791 -321756 -337368 -509157
832374623118322688 -255548 -321581 -337267 -509133
832374623136535808 -255382 -321568 -337351 -509152
832374623154748800 -255244 -321366 -337201 -509106
832374623172961792 -254964 -321273 -337104 -509058
832374623191174912 -254826 -321113 -337070 -509076
832374623209387904 -254674 -321048 -336979 -509017
832374623227600980 -254488 -321022 -336930 -509071
832374623245813376 -254230 -320854 -336850 -509069
832374623264025728 -253968 -320733 -336766 -509075
832374623282238208 -253764 -320595 -336693 -509094
832374623300450560 -253473 -320467 -336651 -509083
832374623318663040 -253281 -320360 -336616 -509063
832374623336875392 -253100 -320238 -336509 -509030
832374623355087872 -253051 -320206 -336523 -509021
832374623373300224 -253095 -320171 -336570 -509077
832374623391512704 -253037 -320216 -336479 -509030
832374623409725056 -253145 -320222 -336511 -509084
832374623427937536 -253163 -320262 -336529 -509115
832374623446149888 -253033 -320234 -336463 -509043
832374623464362368 -253003 -320178 -336463 -509025
832374623482574720 -252941 -320164 -336454 -509062
832374623500787200 -252860 -320138 -336395 -509075
832374623518999552 -252768 -320076 -336418 -509056
832374623537212032 -252619 -319933 -336360 -509054
832374623555424384 -252485 -319846 -336299 -509058
832374623573636864 -252352 -319793 -336275 -509043
832374623591849216 -252290 -319704 -336197 -509060
832374623610061696 -252213 -319663 -336281 -509089
832374623628274048 -252002 -319536 -336177 -509070
832374623646486528 -251669 -319359 -336039 -509073
832374623664698880 -251371 -319286 -335984 -509068
832374623682911360 -251061 -319116 -335895 -509023
832374623701123712 -250760 -318957 -335702 -509054
832374623719336192 -250494 -318805 -335684 -509074
832374623737548544 -250383 -318720 -335687 -509084
832374623755761024 -250386 -318728 -335695 -509041
832374623773973376 -250724 -318930 -335797 -509101
832374623792185856 -251057 -319105 -335886 -509149
832374623810398208 -251394 -319250 -336032 -509055
832374623828610688 -251730 -319454 -336208 -509118
832374623846823040 -252119 -319673 -336258 -509086
832374623865035520 -252497 -319917 -336331 -509062
832374623883247872 -252969 -320161 -336438 -509064
832374623901460352 -253341 -320400 -336621 -509049
832374623919672704 -253671 -320537 -336755 -509048
832374623937885184 -254107 -320814 -336899 -509054
832374623956097536 -254570 -321149 -337032 -509120
832374623974310016 -255056 -321321 -337137 -509069
832374623992522450 -255453 -321505 -337226 -509097
832374624010735616 -255780 -321663 -337269 -509071
832374624028948736 -255777 -321760 -337349 -508999
832374624047161856 -255817 -321774 -337331 -509042
832374624065375104 -255825 -321815 -337368 -509033
832374624083588224 -255792 -321743 -337363 -509066
832374624101801344 -255764 -321703 -337369 -509122
832374624120014464 -255500 -321635 -337299 -509066
832374624138227584 -255344 -321488 -337197 -509049
832374624156440704 -255191 -321418 -337229 -509031
832374624174653952 -255087 -321321 -337175 -509046
832374624192867072 -254912 -321180 -337073 -509054
832374624211080192 -254683 -321035 -337005 -509042
832374624229293312 -254344 -320890 -336913 -509022
832374624247506432 -254081 -320809 -336845 -509057
832374624265719552 -253973 -320684 -336791 -509092
832374624283932800 -253710 -320557 -336726 -509105
832374624302145920 -253441 -320461 -336642 -509108
832374624320359040 -253180 -320344 -336568 -509096
832374624338572160 -253062 -320256 -336494 -509067
832374624356785280 -253065 -320212 -336527 -509088
832374624374998400 -253149 -320246 -336547 -509051
832374624393211648 -253201 -320279 -336533 -509065
832374624411424768 -253162 -320273 -336515 -509055
832374624429637888 -253077 -320261 -336472 -509056
832374624447851008 -253026 -320207 -336504 -509065
832374624466064128 -253002 -320261 -336488 -509069
832374624484277376 -252992 -320185 -336500 -509091
832374624502490496 -252808 -320160 -336483 -509107
832374624520703616 -252705 -320054 -336454 -509136
832374624538916736 -252560 -320052 -336400 -509113
832374624557129856 -252536 -319946 -336341 -509094
832374624575342976 -252505 -319890 -336283 -509093
832374624593556224 -252314 -319808 -336258 -509054
832374624611769344 -252080 -319716 -336197 -509051
832374624629982464 -251907 -319603 -336127 -509054
832374624648195584 -251650 -319393 -336028 -509073
832374624666408704 -251403 -319263 -335923 -509091
832374624684621824 -251118 -319159 -335845 -509048
832374624702835072 -250759 -318935 -335793 -509066
832374624721048192 -250590 -318815 -335719 -509034
832374624739261312 -250437 -318723 -335690 -509097
832374624757474430 -250584 -318812 -335759 -509004
832374624775688320 -250878 -318994 -335906 -509057
832374624793902208 -251233 -319194 -335977 -509098
832374624812116224 -251473 -319252 -336032 -509080
832374624830330112 -251764 -319417 -336094 -509093
832374624848544128 -252078 -319651 -336215 -509055
832374624866758016 -252518 -319882 -336412 -509030
832374624884972032 -252969 -320180 -336516 -509056
832374624903185920 -253261 -320342 -336563 -509057
832374624921399936 -253641 -320525 -336709 -509058
832374624939613824 -254241 -320838 -336951 -509075
832374624957827712 -254776 -321108 -337083 -509101
832374624976041728 -255153 -321317 -337175 -509057
832374624994255616 -255459 -321511 -337269 -508991
832374625012469632 -255613 -321598 -337291 -509019
832374625030683520 -255711 -321689 -337357 -509002
832374625048897536 -255761 -321717 -337353 -509009
832374625067111424 -255798 -321799 -337435 -509053
832374625085325440 -255752 -321758 -337403 -509080
832374625103539328 -255633 -321643 -337351 -509089
832374625121753344 -255503 -321617 -337268 -509041
832374625139967232 -255397 -321528 -337219 -509074
832374625158181120 -255285 -321477 -337172 -509080
832374625176395136 -255163 -321332 -337108 -509041
832374625194609024 -254904 -321249 -337084 -509122
832374625212823040 -254570 -321082 -336989 -509124
832374625231036928 -254285 -320881 -336890 -509088
832374625249250944 -254069 -320814 -336850 -509102
832374625267464832 -253858 -320686 -336784 -509088
832374625285678848 -253642 -320519 -336652 -509087
832374625303892736 -253447 -320439 -336664 -509073
832374625322106624 -253202 -320297 -336520 -509052
832374625340320640 -253195 -320279 -336545 -509051
832374625358534528 -253238 -320335 -336597 -509065
832374625376748544 -253224 -320290 -336567 -509063
832374625394962432 -253178 -320219 -336514 -509071
832374625413176448 -253223 -320262 -336580 -509087
832374625431390336 -253106 -320330 -336575 -509077
832374625449604360 -253064 -320259 -336507 -509069
832374625467817600 -253058 -320210 -336538 -509050
832374625486030848 -252975 -320224 -336513 -509085
832374625504244096 -252873 -320159 -336427 -509073
832374625522457344 -252804 -320084 -336418 -509047
832374625540670592 -252770 -320070 -336373 -509070
832374625558883840 -252720 -320019 -336430 -509094
832374625577097088 -252576 -319917 -336392 -509051
832374625595310336 -252359 -319811 -336312 -509074
832374625613523584 -252051 -319636 -336232 -509021
832374625631736832 -251814 -319591 -336190 -509049
832374625649950080 -251553 -319391 -336105 -509040
