TIMESTAMP PPG0 PPG1 PPG2 AMBIENT
832374161361928576 -63361 -145297 -151452 -325755
832374161380110336 -63249 -145269 -151467 -325761
832374161398292224 -63159 -145257 -151492 -325781
832374161416473984 -63149 -145236 -151438 -325795
832374161434655872 -63182 -145266 -151446 -325826
832374161452837632 -63280 -145316 -151476 -325800
832374161471019520 -63345 -145352 -151497 -325790
832374161489201280 -63526 -145439 -151558 -325845
832374161507383168 -63549 -145432 -151597 -325830
832374161525564928 -63479 -145444 -151625 -325874
832374161543746816 -63429 -145363 -151518 -325778
832374161561928576 -63381 -145313 -151565 -325818
832374161580110336 -63314 -145329 -151539 -325821
832374161598292224 -63236 -145370 -151462 -325836
832374161616473984 -63248 -145301 -151461 -325865
832374161634655872 -63298 -145281 -151455 -325802
832374161652837632 -63402 -145367 -151547 -325841
832374161671019520 -63503 -145419 -151561 -325862
832374161689201280 -63587 -145379 -151514 -325796
832374161707383168 -63538 -145388 -151526 -325830
832374161725564928 -63444 -145398 -151493 -325826
832374161743746816 -63361 -145389 -151525 -325764
832374161761928576 -63346 -145344 -151492 -325779
832374161780110336 -63295 -145348 -151617 -325868
832374161798292224 -63177 -145265 -151507 -325805
832374161816473984 -63226 -145285 -151483 -325817
832374161834655872 -63242 -145307 -151470 -325799
832374161852837632 -63366 -145334 -151544 -325825
832374161871019520 -63377 -145431 -151533 -325769
832374161889201280 -63466 -145364 -151506 -325821
832374161907383168 -63422 -145324 -151497 -325798
832374161925564928 -63455 -145415 -151562 -325857
832374161943746816 -63377 -145331 -151545 -325834
832374161961928576 -63240 -145277 -151478 -325813
832374161980110336 -63266 -145328 -151507 -325795
832374161998292224 -63214 -145297 -151464 -325835
832374162016473984 -63250 -145291 -151491 -325825
832374162034655872 -63305 -145281 -151527 -325724
832374162052837632 -63458 -145358 -151562 -325816
832374162071019520 -63545 -145397 -151576 -325808
832374162089201280 -63594 -145382 -151589 -325811
832374162107383168 -63552 -145363 -151548 -325822
832374162125564874 -63447 -145317 -151479 -325784
832374162143779584 -63388 -145297 -151518 -325819
832374162161994240 -63276 -145305 -151536 -325845
832374162180208896 -63212 -145252 -151483 -325821
832374162198423552 -63254 -145236 -151527 -325858
832374162216638208 -63272 -145310 -151497 -325758
832374162234852864 -63343 -145304 -151488 -325781
832374162253067648 -63504 -145360 -151507 -325791
832374162271282304 -63536 -145400 -151553 -325802
832374162289496960 -63487 -145382 -151549 -325817
832374162307711616 -63530 -145434 -151604 -325819
832374162325926272 -63436 -145400 -151609 -325796
832374162344140928 -63339 -145377 -151532 -325825
832374162362355584 -63280 -145345 -151546 -325809
832374162380570240 -63214 -145327 -151485 -325835
832374162398784896 -63189 -145336 -151479 -325808
832374162416999552 -63228 -145299 -151483 -325824
832374162435214336 -63306 -145318 -151536 -325788
832374162453428992 -63475 -145375 -151554 -325830
832374162471643648 -63614 -145440 -151595 -325815
832374162489858304 -63480 -145347 -151513 -325798
832374162508072960 -63492 -145362 -151567 -325808
832374162526287616 -63412 -145365 -151563 -325862
832374162544502272 -63332 -145364 -151529 -325854
832374162562716928 -63312 -145338 -151494 -325873
832374162580931584 -63205 -145353 -151544 -325816
832374162599146240 -63223 -145297 -151515 -325841
832374162617360896 -63301 -145297 -151537 -325832
832374162635575680 -63414 -145333 -151616 -325822
832374162653790336 -63528 -145406 -151642 -325826
832374162672004992 -63569 -145448 -151618 -325832
832374162690219648 -63500 -145444 -151592 -325882
832374162708434304 -63506 -145447 -151608 -325875
832374162726648960 -63417 -145365 -151572 -325805
832374162744863616 -63374 -145317 -151565 -325877
832374162763078272 -63328 -145309 -151519 -325826
832374162781292928 -63244 -145262 -151504 -325824
832374162799507584 -63242 -145250 -151477 -325816
832374162817722368 -63323 -145299 -151511 -325818
832374162835937024 -63453 -145325 -151542 -325774
832374162854151680 -63495 -145403 -151633 -325798
832374162872366336 -63493 -145433 -151536 -325787
832374162890580942 -63469 -145414 -151588 -325811
832374162908796416 -63429 -145450 -151594 -325852
832374162927011840 -63342 -145324 -151565 -325831
832374162945227264 -63293 -145381 -151559 -325852
832374162963442560 -63254 -145346 -151533 -325891
832374162981657984 -63202 -145277 -151460 -325845
832374162999873408 -63187 -145286 -151477 -325825
832374163018088832 -63341 -145363 -151492 -325815
832374163036304128 -63379 -145366 -151527 -325854
832374163054519552 -63547 -145435 -151555 -325824
832374163072734976 -63504 -145402 -151612 -325821
832374163090950400 -63401 -145324 -151553 -325790
832374163109165696 -63413 -145322 -151565 -325843
832374163127381120 -63383 -145287 -151510 -325833
832374163145596544 -63334 -145371 -151486 -325780
832374163163811968 -63253 -145343 -151495 -325820
832374163182027392 -63177 -145281 -151470 -325767
832374163200242688 -63313 -145328 -151497 -325804
832374163218458112 -63334 -145292 -151483 -325772
832374163236673536 -63513 -145385 -151584 -325768
832374163254888960 -63601 -145399 -151564 -325761
832374163273104256 -63487 -145373 -151502 -325792
832374163291319680 -63462 -145332 -151537 -325789
832374163309535104 -63342 -145332 -151500 -325796
832374163327750528 -63296 -145333 -151473 -325822
832374163345965952 -63328 -145342 -151479 -325806
832374163364181248 -63187 -145262 -151479 -325796
832374163382396672 -63207 -145246 -151476 -325811
832374163400612096 -63305 -145250 -151483 -325784
832374163418827520 -63454 -145348 -151560 -325826
832374163437042816 -63496 -145367 -151507 -325823
832374163455258240 -63505 -145375 -151504 -325778
832374163473473664 -63570 -145458 -151583 -325863
832374163491689088 -63467 -145368 -151557 -325868
832374163509904384 -63315 -145295 -151518 -325761
832374163528119808 -63287 -145341 -151510 -325834
832374163546335232 -63247 -145307 -151486 -325795
832374163564550656 -63244 -145269 -151492 -325773
832374163582766080 -63262 -145309 -151524 -325814
832374163600981376 -63283 -145268 -151507 -325819
832374163619196800 -63436 -145366 -151583 -325806
832374163637412224 -63521 -145317 -151535 -325747
832374163655627528 -63485 -145356 -151532 -325809
832374163673841536 -63461 -145387 -151581 -325867
832374163692055552 -63450 -145320 -151533 -325785
832374163710269568 -63322 -145334 -151486 -325825
832374163728483584 -63341 -145301 -151479 -325838
832374163746697600 -63292 -145315 -151478 -325828
832374163764911616 -63159 -145307 -151457 -325825
832374163783125632 -63227 -145279 -151487 -325835
832374163801339648 -63354 -145344 -151572 -325849
832374163819553664 -63475 -145397 -151592 -325819
832374163837767680 -63642 -145439 -151635 -325806
832374163855981696 -63485 -145458 -151563 -325805
832374163874195712 -63436 -145396 -151600 -325817
832374163892409728 -63362 -145366 -151520 -325818
832374163910623744 -63357 -145304 -151476 -325786
832374163928837760 -63288 -145281 -151471 -325773
832374163947051776 -63173 -145277 -151446 -325808
832374163965265792 -63170 -145279 -151475 -325835
832374163983479808 -63230 -145253 -151529 -325875
832374164001693824 -63281 -145242 -151504 -325799
832374164019907840 -63434 -145358 -151524 -325773
832374164038121856 -63519 -145406 -151583 -325780
832374164056335872 -63488 -145376 -151572 -325795
832374164074549888 -63439 -145280 -151572 -325794
832374164092763904 -63329 -145333 -151521 -325817
832374164110977920 -63388 -145328 -151543 -325874
832374164129191936 -63333 -145310 -151503 -325819
832374164147405952 -63222 -145246 -151451 -325802
832374164165619968 -63131 -145243 -151480 -325758
832374164183833984 -63216 -145226 -151490 -325786
832374164202048000 -63441 -145316 -151582 -325836
832374164220262016 -63465 -145370 -151539 -325826
832374164238476032 -63554 -145402 -151533 -325769
832374164256690048 -63526 -145419 -151543 -325845
832374164274904064 -63492 -145404 -151535 -325805
832374164293118080 -63416 -145304 -151520 -325780
832374164311332096 -63368 -145344 -151543 -325840
832374164329546112 -63329 -145244 -151542 -325846
832374164347760128 -63221 -145243 -151505 -325829
832374164365974016 -63258 -145207 -151502 -325814
832374164384188032 -63306 -145303 -151487 -325833
832374164402402048 -63351 -145341 -151511 -325789
832374164420616128 -63524 -145405 -151543 -325772
832374164438829312 -63552 -145396 -151575 -325805
832374164457042432 -63463 -145409 -151514 -325781
832374164475255680 -63392 -145368 -151545 -325806
832374164493468800 -63378 -145339 -151524 -325791
832374164511682048 -63343 -145309 -151509 -325763
832374164529895168 -63253 -145268 -151488 -325727
832374164548108416 -63200 -145262 -151456 -325751
832374164566321536 -63287 -145327 -151478 -325784
832374164584534784 -63335 -145333 -151472 -325749
832374164602747904 -63436 -145328 -151558 -325750
832374164620961152 -63549 -145366 -151542 -325736
832374164639174272 -63595 -145364 -151574 -325834
832374164657387392 -63515 -145370 -151561 -325818
832374164675600640 -63405 -145328 -151626 -325797
832374164693813760 -63384 -145371 -151547 -325782
832374164712027008 -63273 -145349 -151503 -325809
832374164730240128 -63277 -145325 -151523 -325804
832374164748453376 -63110 -145226 -151508 -325783
832374164766666496 -63225 -145236 -151531 -325864
832374164784879744 -63301 -145319 -151518 -325809
832374164803092864 -63452 -145328 -151588 -325831
832374164821306112 -63569 -145384 -151601 -325772
832374164839519232 -63555 -145444 -151594 -325816
832374164857732352 -63453 -145293 -151570 -325815
832374164875945600 -63421 -145383 -151512 -325846
832374164894158720 -63251 -145326 -151494 -325747
832374164912371968 -63247 -145356 -151550 -325741
832374164930585088 -63114 -145240 -151492 -325750
832374164948798336 -63085 -145242 -151495 -325751
832374164967011456 -63207 -145265 -151513 -325834
832374164985224704 -63294 -145261 -151543 -325774
832374165003437824 -63516 -145377 -151574 -325838
832374165021650944 -63631 -145421 -151522 -325816
832374165039864192 -63521 -145399 -151543 -325801
832374165058077312 -63433 -145382 -151478 -325838
832374165076290560 -63408 -145349 -151478 -325814
832374165094503680 -63345 -145326 -151521 -325799
832374165112716928 -63359 -145355 -151611 -325815
832374165130930048 -63233 -145280 -151494 -325757
832374165149143296 -63265 -145253 -151464 -325796
832374165167356416 -63323 -145353 -151557 -325786
832374165185569664 -63390 -145362 -151506 -325784
832374165203782778 -63492 -145426 -151616 -325825
832374165221997696 -63534 -145456 -151621 -325805
832374165240212608 -63521 -145418 -151654 -325791
832374165258427520 -63309 -145380 -151577 -325737
832374165276642304 -63352 -145336 -151557 -325782
832374165294857216 -63343 -145336 -151562 -325753
832374165313072128 -63293 -145282 -151574 -325851
832374165331287040 -63189 -145263 -151503 -325773
832374165349501952 -63228 -145210 -151539 -325771
832374165367716736 -63331 -145298 -151519 -325798
832374165385931648 -63430 -145382 -151576 -325840
832374165404146560 -63565 -145449 -151645 -325786
832374165422361472 -63594 -145490 -151657 -325813
832374165440576384 -63564 -145400 -151597 -325803
832374165458791168 -63443 -145378 -151529 -325828
832374165477006080 -63369 -145294 -151469 -325830
832374165495220992 -63346 -145294 -151584 -325852
832374165513435904 -63296 -145369 -151584 -325868
832374165531650816 -63217 -145265 -151561 -325813
832374165549865600 -63293 -145266 -151535 -325826
832374165568080512 -63343 -145318 -151552 -325845
832374165586295424 -63426 -145315 -151509 -325764
832374165604510336 -63492 -145407 -151559 -325804
832374165622725248 -63492 -145386 -151594 -325780
832374165640940032 -63424 -145407 -151543 -325852
832374165659154944 -63324 -145312 -151496 -325788
832374165677369856 -63351 -145341 -151573 -325807
832374165695584768 -63312 -145327 -151520 -325863
832374165713799680 -63294 -145301 -151523 -325818
832374165732014464 -63214 -145276 -151486 -325766
832374165750229376 -63292 -145293 -151510 -325830
832374165768444288 -63436 -145346 -151572 -325865
832374165786659200 -63529 -145394 -151554 -325840
832374165804874112 -63564 -145385 -151525 -325767
832374165823088896 -63585 -145457 -151532 -325762
832374165841303808 -63481 -145415 -151586 -325785
832374165859518720 -63392 -145316 -151557 -325849
832374165877733632 -63427 -145388 -151569 -325829
832374165895948544 -63388 -145351 -151523 -325869
832374165914163328 -63228 -145252 -151439 -325787
832374165932378240 -63171 -145254 -151441 -325796
832374165950593152 -63236 -145229 -151433 -325747
832374165968808000 -63415 -145230 -151460 -325790
832374165987021824 -63458 -145298 -151528 -325782
832374166005235712 -63555 -145380 -151563 -325774
832374166023449600 -63541 -145383 -151646 -325797
832374166041663488 -63391 -145285 -151536 -325722
832374166059877248 -63350 -145250 -151479 -325747
832374166078091136 -63292 -145293 -151504 -325754
832374166096305024 -63332 -145335 -151538 -325812
832374166114518912 -63145 -145245 -151429 -325774
832374166132732800 -63158 -145207 -151454 -325786
832374166150946688 -63275 -145251 -151404 -325825
832374166169160576 -63420 -145358 -151492 -325820
832374166187374336 -63516 -145385 -151539 -325788
832374166205588224 -63519 -145404 -151572 -325803
832374166223802112 -63486 -145365 -151573 -325850
832374166242016000 -63379 -145349 -151513 -325812
832374166260229888 -63360 -145325 -151515 -325767
832374166278443776 -63281 -145298 -151454 -325772
832374166296657536 -63294 -145365 -151461 -325772
832374166314871424 -63161 -145276 -151496 -325745
832374166333085312 -63240 -145280 -151474 -325773
832374166351299200 -63341 -145303 -151509 -325828
832374166369513088 -63438 -145307 -151525 -325826
832374166387726976 -63506 -145347 -151556 -325794
832374166405940864 -63562 -145331 -151601 -325774
832374166424154624 -63512 -145335 -151587 -325763
832374166442368512 -63428 -145396 -151589 -325797
832374166460582400 -63283 -145324 -151536 -325751
832374166478796288 -63233 -145290 -151521 -325733
832374166497010176 -63181 -145325 -151506 -325736
832374166515224064 -63226 -145293 -151456 -325772
832374166533437952 -63187 -145242 -151468 -325741
832374166551651712 -63265 -145276 -151473 -325740
832374166569865600 -63367 -145300 -151463 -325749
832374166588079488 -63524 -145377 -151562 -325772
832374166606293376 -63482 -145400 -151569 -325823
832374166624507264 -63462 -145365 -151590 -325813
832374166642721152 -63334 -145298 -151496 -325738
832374166660935040 -63272 -145264 -151497 -325804
832374166679148800 -63299 -145307 -151488 -325841
832374166697362688 -63185 -145256 -151427 -325772
832374166715576576 -63265 -145183 -151436 -325781
832374166733790498 -63266 -145212 -151446 -325771
832374166752004352 -63356 -145277 -151515 -325835
832374166770218240 -63449 -145320 -151521 -325790
832374166788432128 -63500 -145414 -151530 -325755
832374166806646016 -63492 -145344 -151519 -325747
832374166824859776 -63397 -145333 -151489 -325739
832374166843073664 -63386 -145350 -151527 -325755
832374166861287552 -63254 -145324 -151513 -325772
832374166879501440 -63251 -145325 -151497 -325762
832374166897715328 -63178 -145250 -151473 -325777
832374166915929216 -63199 -145242 -151503 -325850
832374166934143104 -63257 -145209 -151489 -325829
832374166952356864 -63294 -145304 -151493 -325757
832374166970570752 -63399 -145355 -151560 -325779
832374166988784640 -63418 -145368 -151566 -325734
832374167006998528 -63399 -145301 -151513 -325756
832374167025212416 -63398 -145339 -151525 -325719
832374167043426304 -63354 -145354 -151560 -325833
832374167061640064 -63268 -145338 -151527 -325768
832374167079853952 -63271 -145331 -151450 -325761
832374167098067840 -63211 -145276 -151464 -325768
832374167116281728 -63247 -145226 -151493 -325777
832374167134495616 -63264 -145229 -151433 -325758
832374167152709504 -63396 -145298 -151461 -325801
832374167170923392 -63516 -145347 -151502 -325787
832374167189137152 -63557 -145411 -151528 -325780
832374167207351040 -63534 -145449 -151577 -325779
832374167225564928 -63442 -145427 -151561 -325782
832374167243778816 -63335 -145311 -151488 -325788
832374167261992704 -63185 -145222 -151466 -325739
832374167280206592 -63264 -145253 -151478 -325781
832374167298420480 -63157 -145243 -151442 -325828
832374167316634240 -63299 -145274 -151536 -325837
832374167334848128 -63348 -145283 -151426 -325822
832374167353062016 -63435 -145363 -151556 -325787
832374167371275904 -63552 -145415 -151578 -325853
832374167389489792 -63562 -145407 -151590 -325775
832374167407703680 -63476 -145360 -151592 -325807
832374167425917568 -63399 -145338 -151543 -325775
832374167444131328 -63305 -145302 -151510 -325801
832374167462345216 -63214 -145321 -151500 -325812
832374167480559104 -63165 -145264 -151462 -325812
832374167498772996 -63185 -145137 -151430 -325794
832374167516987648 -63327 -145254 -151496 -325846
832374167535202304 -63404 -145286 -151523 -325847
832374167553416832 -63464 -145333 -151552 -325809
832374167571631488 -63573 -145449 -151601 -325792
832374167589846016 -63561 -145407 -151552 -325824
832374167608060672 -63487 -145380 -151524 -325862
832374167626275200 -63345 -145292 -151520 -325835
832374167644489856 -63285 -145338 -151484 -325781
832374167662704384 -63156 -145279 -151422 -325714
832374167680919040 -63130 -145226 -151454 -325722
832374167699133568 -63172 -145264 -151445 -325763
832374167717348224 -63290 -145267 -151510 -325807
832374167735562752 -63339 -145287 -151487 -325744
832374167753777408 -63390 -145344 -151506 -325749
832374167771991936 -63433 -145413 -151576 -325784
832374167790206592 -63437 -145420 -151552 -325811
832374167808421120 -63403 -145349 -151519 -325766
832374167826635776 -63363 -145290 -151513 -325811
832374167844850304 -63256 -145266 -151530 -325802
832374167863064960 -63180 -145309 -151479 -325803
832374167881279488 -63191 -145279 -151529 -325849
832374167899494144 -63204 -145318 -151514 -325808
832374167917708672 -63273 -145234 -151458 -325761
832374167935923328 -63362 -145273 -151509 -325769
832374167954137856 -63505 -145326 -151525 -325830
832374167972352512 -63469 -145333 -151535 -325771
832374167990567040 -63383 -145395 -151550 -325702
832374168008781696 -63434 -145353 -151559 -325805
832374168026996224 -63386 -145339 -151537 -325781
832374168045210880 -63335 -145351 -151536 -325747
832374168063425408 -63189 -145290 -151455 -325804
832374168081640064 -63148 -145292 -151491 -325868
832374168099854592 -63228 -145234 -151440 -325819
832374168118069248 -63350 -145277 -151463 -325867
832374168136283904 -63392 -145298 -151507 -325821
832374168154498432 -63484 -145359 -151549 -325848
832374168172713088 -63481 -145370 -151580 -325853
832374168190927616 -63439 -145360 -151584 -325821
832374168209142272 -63458 -145400 -151574 -325865
832374168227356800 -63377 -145355 -151536 -325817
832374168245571346 -63282 -145343 -151471 -325812
832374168263785344 -63169 -145312 -151459 -325841
832374168281999360 -63157 -145232 -151460 -325807
832374168300213376 -63250 -145278 -151481 -325772
832374168318427264 -63362 -145344 -151519 -325803
832374168336641280 -63404 -145326 -151541 -325771
832374168354855296 -63529 -145440 -151553 -325854
832374168373069312 -63429 -145388 -151546 -325842
832374168391283328 -63469 -145341 -151483 -325811
832374168409497216 -63376 -145356 -151560 -325797
832374168427711232 -63342 -145332 -151562 -325737
832374168445925248 -63253 -145257 -151483 -325800
832374168464139264 -63226 -145290 -151474 -325796
832374168482353280 -63231 -145285 -151494 -325800
832374168500567168 -63254 -145296 -151545 -325829
832374168518781184 -63326 -145332 -151531 -325802
832374168536995200 -63396 -145381 -151575 -325822
832374168555209216 -63511 -145418 -151631 -325761
832374168573423232 -63515 -145411 -151640 -325843
832374168591637120 -63459 -145342 -151563 -325840
832374168609851136 -63431 -145405 -151565 -325816
832374168628065152 -63319 -145296 -151536 -325821
832374168646279168 -63237 -145295 -151510 -325856
832374168664493184 -63153 -145266 -151484 -325787
832374168682707072 -63305 -145275 -151481 -325780
832374168700921088 -63353 -145300 -151502 -325804
832374168719135104 -63376 -145368 -151532 -325766
832374168737349120 -63512 -145429 -151557 -325792
832374168755563136 -63499 -145402 -151566 -325808
832374168773777024 -63432 -145418 -151586 -325801
832374168791991040 -63496 -145455 -151627 -325851
832374168810205056 -63402 -145369 -151573 -325883
832374168828419072 -63308 -145310 -151520 -325730
832374168846633088 -63263 -145271 -151515 -325825
832374168864846976 -63160 -145260 -151454 -325823
832374168883060992 -63194 -145262 -151477 -325805
832374168901275008 -63368 -145362 -151533 -325818
832374168919489024 -63421 -145335 -151503 -325815
832374168937703040 -63573 -145429 -151565 -325843
832374168955916928 -63555 -145406 -151510 -325829
832374168974130944 -63583 -145427 -151589 -325847
832374168992344960 -63411 -145328 -151582 -325834
832374169010558976 -63388 -145335 -151553 -325853
832374169028772992 -63418 -145371 -151545 -325871
832374169046986880 -63287 -145342 -151554 -325829
832374169065200906 -63258 -145307 -151574 -325869
832374169083414656 -63229 -145294 -151559 -325852
832374169101628416 -63301 -145277 -151512 -325829
832374169119842048 -63476 -145312 -151562 -325845
832374169138055808 -63551 -145421 -151625 -325833
832374169156269568 -63555 -145404 -151606 -325853
832374169174483328 -63425 -145351 -151528 -325819
832374169192696960 -63706 -145504 -151606 -325780
832374169210910720 -64106 -145722 -151739 -325806
832374169229124480 -64393 -145857 -151827 -325834
832374169247338112 -64408 -145881 -151825 -325805
832374169265551872 -64599 -145887 -151901 -325818
832374169283765632 -64681 -145951 -151876 -325800
832374169301979392 -64715 -145986 -151860 -325809
832374169320193024 -64729 -145979 -151873 -325790
832374169338406784 -64670 -145991 -151884 -325817
832374169356620544 -64326 -145840 -151787 -325792
832374169374834176 -64026 -145663 -151749 -325821
832374169393047936 -63765 -145520 -151648 -325803
832374169411261696 -63490 -145432 -151569 -325829
832374169429475456 -63148 -145251 -151463 -325855
832374169447689088 -62836 -145087 -151332 -325809
832374169465902848 -62694 -144941 -151309 -325829
832374169484116608 -62486 -144841 -151250 -325822
832374169502330240 -62404 -144759 -151213 -325851
832374169520544000 -62371 -144748 -151208 -325828
832374169538757760 -62254 -144696 -151136 -325817
832374169556971520 -62197 -144680 -151189 -325770
832374169575185152 -61984 -144624 -151091 -325786
832374169593398912 -61985 -144659 -151064 -325821
832374169611612672 -61896 -144601 -151025 -325794
832374169629826304 -61894 -144613 -151089 -325817
832374169648040064 -61816 -144511 -151049 -325786
832374169666253824 -61770 -144522 -151083 -325855
832374169684467584 -61846 -144580 -151092 -325811
832374169702681216 -61860 -144577 -151113 -325813
832374169720894976 -61909 -144500 -151080 -325813
832374169739108736 -61778 -144476 -151032 -325788
832374169757322368 -61586 -144421 -150939 -325801
832374169775536128 -61370 -144361 -150946 -325815
832374169793749888 -61141 -144188 -150875 -325769
832374169811963648 -60839 -144069 -150700 -325822
832374169830177300 -60646 -143946 -150651 -325846
832374169848391296 -60362 -143779 -150550 -325838
832374169866605312 -60107 -143629 -150495 -325785
832374169884819328 -59979 -143580 -150444 -325837
832374169903033472 -59873 -143478 -150419 -325796
832374169921247488 -59706 -143423 -150383 -325821
832374169939461504 -59571 -143359 -150369 -325816
832374169957675520 -59573 -143408 -150304 -325853
832374169975889536 -59692 -143470 -150336 -325751
832374169994103680 -59901 -143636 -150428 -325807
832374170012317696 -60225 -143756 -150482 -325788
832374170030531712 -60473 -143866 -150592 -325780
832374170048745728 -60807 -144042 -150707 -325823
832374170066959744 -61366 -144247 -150911 -325791
832374170085173760 -61968 -144598 -151085 -325762
832374170103387904 -62488 -144865 -151218 -325749
832374170121601920 -62982 -145063 -151359 -325784
832374170139815936 -63352 -145330 -151484 -325796
832374170158029952 -63661 -145479 -151642 -325828
832374170176243968 -63996 -145661 -151746 -325836
832374170194458112 -64255 -145807 -151785 -325784
832374170212672128 -64477 -145870 -151808 -325741
832374170230886144 -64529 -145905 -151828 -325760
832374170249100160 -64528 -145899 -151840 -325731
832374170267314176 -64663 -145958 -151819 -325790
832374170285528320 -64783 -145968 -151896 -325822
832374170303742336 -64804 -146015 -151901 -325808
832374170321956352 -64837 -146060 -151970 -325805
832374170340170368 -64556 -145989 -151928 -325809
832374170358384384 -64247 -145773 -151842 -325787
832374170376598400 -63964 -145646 -151708 -325801
832374170394812544 -63602 -145489 -151640 -325770
832374170413026560 -63422 -145348 -151547 -325818
832374170431240576 -63073 -145215 -151447 -325839
832374170449454662 -62854 -145036 -151357 -325846
832374170467668608 -62699 -144974 -151336 -325817
832374170485882496 -62593 -144934 -151251 -325795
832374170504096512 -62543 -144846 -151230 -325775
832374170522310400 -62397 -144786 -151167 -325710
832374170540524288 -62208 -144728 -151139 -325766
832374170558738176 -62078 -144685 -151138 -325743
832374170576952192 -62003 -144656 -151125 -325836
832374170595166080 -61874 -144616 -151033 -325738
832374170613379968 -61886 -144573 -151052 -325805
832374170631593984 -61791 -144579 -151068 -325816
832374170649807872 -61790 -144517 -151021 -325766
832374170668021760 -61842 -144621 -151068 -325790
832374170686235648 -61962 -144600 -151117 -325838
832374170704449664 -61940 -144621 -151080 -325754
832374170722663552 -61907 -144595 -151084 -325783
832374170740877440 -61758 -144513 -151072 -325794
832374170759091456 -61520 -144328 -150972 -325786
832374170777305344 -61313 -144221 -150908 -325766
832374170795519232 -61061 -144155 -150794 -325835
832374170813733120 -60787 -144013 -150709 -325847
832374170831947136 -60506 -143922 -150703 -325786
832374170850161024 -60213 -143752 -150540 -325786
832374170868374912 -60162 -143693 -150486 -325824
832374170886588928 -60012 -143555 -150418 -325757
832374170904802816 -59939 -143535 -150421 -325768
832374170923016704 -59648 -143416 -150333 -325781
832374170941230592 -59500 -143342 -150294 -325755
832374170959444608 -59546 -143310 -150280 -325747
832374170977658496 -59719 -143385 -150290 -325816
832374170995872384 -60011 -143628 -150414 -325865
832374171014086400 -60173 -143653 -150484 -325792
832374171032300288 -60561 -143819 -150621 -325788
832374171050514176 -60936 -144061 -150755 -325712
832374171068728064 -61470 -144358 -150888 -325808
832374171086942080 -62106 -144659 -151082 -325769
832374171105155968 -62675 -144898 -151340 -325863
832374171123369856 -63010 -145125 -151458 -325815
832374171141583872 -63350 -145297 -151556 -325834
832374171159797726 -63717 -145522 -151628 -325749
832374171178010880 -63888 -145639 -151661 -325752
832374171196224000 -64248 -145837 -151803 -325819
832374171214437120 -64353 -145875 -151861 -325812
832374171232650368 -64500 -145908 -151904 -325779
832374171250863488 -64619 -145991 -151917 -325781
832374171269076608 -64762 -145981 -151942 -325837
832374171287289728 -64905 -146052 -151988 -325743
832374171305502848 -64869 -146063 -151972 -325767
832374171323715968 -64719 -146041 -151894 -325800
832374171341929216 -64414 -145895 -151869 -325755
832374171360142336 -64252 -145742 -151822 -325798
832374171378355456 -63905 -145593 -151689 -325752
832374171396568576 -63630 -145506 -151625 -325745
832374171414781696 -63340 -145311 -151510 -325740
832374171432994816 -63097 -145217 -151483 -325764
832374171451208064 -62904 -145079 -151349 -325770
832374171469421184 -62729 -144963 -151238 -325693
832374171487634304 -62678 -144951 -151248 -325803
832374171505847424 -62499 -144838 -151179 -325830
832374171524060544 -62300 -144813 -151195 -325818
832374171542273792 -62159 -144668 -151146 -325824
832374171560486912 -62050 -144617 -151089 -325785
832374171578700032 -61933 -144596 -151047 -325839
832374171596913152 -61850 -144549 -151048 -325780
832374171615126272 -61814 -144563 -151038 -325818
832374171633339392 -61803 -144576 -151010 -325797
832374171651552640 -61840 -144525 -150998 -325808
832374171669765760 -61940 -144586 -151028 -325805
832374171687978880 -61977 -144548 -151074 -325755
832374171706192000 -61961 -144630 -151076 -325750
832374171724405120 -61839 -144583 -151071 -325804
832374171742618240 -61636 -144461 -151029 -325808
832374171760831488 -61487 -144344 -150940 -325834
832374171779044608 -61286 -144234 -150872 -325808
832374171797257728 -61019 -144152 -150777 -325763
832374171815470848 -60743 -144014 -150679 -325798
832374171833683968 -60572 -143895 -150637 -325804
832374171851897216 -60407 -143870 -150620 -325796
832374171870110336 -60239 -143789 -150522 -325841
832374171888323456 -60156 -143631 -150501 -325866
832374171906536572 -59837 -143516 -150393 -325794
832374171924750464 -59540 -143324 -150256 -325741
832374171942964352 -59432 -143290 -150249 -325843
832374171961178112 -59416 -143319 -150272 -325816
832374171979392000 -59578 -143408 -150285 -325800
832374171997605888 -59887 -143567 -150396 -325830
832374172015819648 -60110 -143637 -150477 -325798
832374172034033536 -60538 -143863 -150631 -325794
832374172052247424 -61013 -144122 -150754 -325791
832374172070461184 -61652 -144353 -150979 -325753
832374172088675072 -62169 -144661 -151113 -325778
832374172106888960 -62613 -144909 -151201 -325812
832374172125102720 -62926 -145083 -151336 -325762
832374172143316608 -63336 -145351 -151478 -325773
832374172161530368 -63697 -145533 -151625 -325755
832374172179744256 -64014 -145718 -151763 -325807
832374172197958144 -64205 -145759 -151834 -325785
832374172216171904 -64409 -145894 -151859 -325813
832374172234385792 -64638 -146015 -151934 -325783
832374172252599680 -64784 -146043 -152000 -325816
832374172270813440 -64887 -146075 -151973 -325760
832374172289027328 -64943 -146163 -152044 -325811
832374172307241216 -64836 -146066 -151976 -325829
832374172325454976 -64608 -145982 -151916 -325824
832374172343668864 -64348 -145843 -151840 -325781
832374172361882752 -64062 -145760 -151734 -325791
832374172380096512 -63766 -145590 -151608 -325788
832374172398310400 -63459 -145382 -151476 -325816
832374172416524288 -63221 -145281 -151416 -325767
832374172434738048 -63105 -145191 -151393 -325772
832374172452951936 -62982 -145116 -151378 -325805
832374172471165824 -62861 -145075 -151336 -325797
832374172489379584 -62705 -144918 -151325 -325797
832374172507593472 -62475 -144771 -151221 -325757
832374172525807232 -62259 -144745 -151201 -325855
832374172544021120 -62070 -144715 -151128 -325794
832374172562235008 -61944 -144651 -151029 -325773
832374172580448776 -61856 -144603 -151015 -325734
832374172598662016 -61840 -144547 -151017 -325760
832374172616875264 -61789 -144510 -150974 -325754
832374172635088512 -61916 -144539 -151030 -325770
832374172653301760 -61964 -144576 -151013 -325775
832374172671515008 -62063 -144576 -151093 -325785
832374172689728384 -61980 -144583 -150994 -325727
832374172707941632 -61869 -144509 -151016 -325722
832374172726154880 -61774 -144447 -151017 -325789
832374172744368128 -61511 -144398 -150992 -325799
832374172762581376 -61318 -144327 -150864 -325772
832374172780794624 -61078 -144152 -150791 -325778
832374172799007872 -60913 -144093 -150755 -325747
832374172817221120 -60781 -143954 -150710 -325786
832374172835434496 -60678 -143899 -150620 -325773
832374172853647744 -60428 -143714 -150491 -325713
832374172871860992 -60348 -143721 -150502 -325743
832374172890074240 -60087 -143626 -150460 -325748
832374172908287488 -59762 -143437 -150366 -325797
832374172926500736 -59473 -143299 -150274 -325762
832374172944713984 -59357 -143225 -150290 -325784
832374172962927232 -59381 -143323 -150238 -325790
832374172981140480 -59522 -143312 -150256 -325765
832374172999353856 -59844 -143500 -150345 -325761
832374173017567104 -60185 -143696 -150462 -325831
832374173035780352 -60648 -143942 -150619 -325739
832374173053993600 -61187 -144202 -150765 -325723
832374173072206848 -61736 -144536 -151001 -325800
832374173090420096 -62164 -144775 -151075 -325790
832374173108633344 -62554 -144923 -151242 -325780
832374173126846592 -62892 -145102 -151338 -325741
832374173145059840 -63244 -145319 -151439 -325737
832374173163273216 -63583 -145480 -151559 -325749
832374173181486464 -63886 -145626 -151685 -325815
832374173199699712 -64203 -145717 -151763 -325795
832374173217912960 -64420 -145845 -151788 -325736
832374173236126208 -64611 -145946 -151886 -325800
832374173254339456 -64864 -146006 -151953 -325765
832374173272552764 -64892 -145994 -151954 -325760
832374173290765184 -64753 -146016 -151923 -325739
832374173308977664 -64689 -145995 -151907 -325780
832374173327190272 -64496 -145868 -151874 -325749
832374173345402752 -64283 -145851 -151869 -325855
832374173363615232 -64039 -145712 -151736 -325792
832374173381827840 -63700 -145516 -151639 -325764
832374173400040320 -63485 -145368 -151606 -325789
832374173418252800 -63287 -145267 -151456 -325811
832374173436465408 -63154 -145206 -151440 -325767
832374173454677888 -63040 -145133 -151389 -325788
832374173472890368 -62841 -145035 -151369 -325730
832374173491102976 -62546 -144922 -151309 -325758
832374173509315456 -62337 -144833 -151147 -325737
832374173527528064 -62161 -144754 -151093 -325749
832374173545740544 -62049 -144649 -151082 -325764
832374173563953024 -61838 -144600 -151054 -325735
832374173582165632 -61809 -144565 -150990 -325777
832374173600378112 -61903 -144537 -151063 -325805
832374173618590592 -61957 -144559 -151016 -325782
832374173636803200 -62021 -144551 -151029 -325744
832374173655015680 -62152 -144620 -151126 -325786
832374173673228160 -62091 -144630 -151131 -325753
832374173691440768 -61984 -144604 -151133 -325755
832374173709653248 -61841 -144579 -151059 -325823
832374173727865728 -61660 -144434 -150972 -325787
832374173746078336 -61501 -144370 -150977 -325802
832374173764290816 -61240 -144226 -150864 -325791
832374173782503296 -61096 -144173 -150796 -325817
832374173800715904 -60977 -143994 -150733 -325807
832374173818928384 -60946 -143987 -150736 -325826
832374173837140864 -60721 -143918 -150695 -325846
832374173855353472 -60569 -143823 -150628 -325791
832374173873565952 -60323 -143715 -150492 -325831
832374173891778560 -60035 -143638 -150490 -325845
832374173909991040 -59690 -143450 -150382 -325833
832374173928203520 -59369 -143283 -150258 -325763
832374173946416128 -59249 -143206 -150202 -325764
832374173964628608 -59239 -143231 -150170 -325682
832374173982841088 -59558 -143393 -150326 -325753
832374174001053696 -59884 -143554 -150389 -325749
832374174019266176 -60294 -143724 -150567 -325760
832374174037478802 -60768 -143908 -150666 -325753
832374174055690496 -61260 -144228 -150810 -325747
832374174073902208 -61698 -144458 -150940 -325705
832374174092113792 -62151 -144666 -151108 -325767
832374174110325504 -62534 -144905 -151264 -325770
832374174128537088 -62858 -145036 -151314 -325752
832374174146748800 -63215 -145278 -151428 -325836
832374174164960384 -63587 -145463 -151641 -325748
832374174183172096 -63938 -145620 -151720 -325823
832374174201383680 -64295 -145797 -151820 -325798
832374174219595392 -64521 -145958 -151851 -325796
832374174237806976 -64738 -145961 -151929 -325784
832374174256018688 -64842 -146046 -151945 -325787
832374174274230272 -64777 -146055 -151915 -325808
832374174292441984 -64686 -145976 -151881 -325799
832374174310653696 -64561 -145914 -151836 -325782
832374174328865280 -64364 -145860 -151771 -325803
832374174347076992 -64075 -145788 -151742 -325794
832374174365288576 -63862 -145642 -151681 -325840
832374174383500288 -63703 -145534 -151620 -325769
832374174401711872 -63494 -145397 -151515 -325775
832374174419923584 -63393 -145301 -151505 -325813
832374174438135168 -63280 -145207 -151422 -325760
832374174456346880 -63017 -145099 -151330 -325780
832374174474558464 -62730 -145023 -151279 -325767
832374174492770176 -62445 -144824 -151217 -325757
832374174510981760 -62243 -144720 -151150 -325782
832374174529193472 -62112 -144660 -151151 -325802
832374174547405184 -61968 -144599 -151102 -325803
832374174565616768 -61882 -144517 -151046 -325788
832374174583828480 -61845 -144565 -151003 -325752
832374174602040064 -61941 -144564 -151020 -325782
832374174620251776 -62026 -144715 -151099 -325796
832374174638463360 -62106 -144622 -151133 -325758
832374174656675072 -62103 -144609 -151075 -325782
832374174674886656 -61967 -144635 -151071 -325774
832374174693098368 -61818 -144574 -150994 -325807
832374174711309952 -61803 -144518 -151064 -325850
832374174729521664 -61538 -144357 -150881 -325758
832374174747733248 -61386 -144280 -150879 -325779
832374174765944960 -61246 -144170 -150859 -325773
832374174784156544 -61041 -144095 -150733 -325761
832374174802368218 -60940 -144055 -150738 -325758
832374174820582784 -60957 -144019 -150775 -325796
832374174838797312 -60732 -143949 -150640 -325775
832374174857011840 -60405 -143812 -150608 -325754
832374174875226368 -60140 -143676 -150451 -325739
832374174893440896 -59917 -143523 -150419 -325807
832374174911655424 -59575 -143377 -150333 -325802
832374174929869952 -59292 -143233 -150248 -325772
832374174948084480 -59218 -143249 -150272 -325819
832374174966299008 -59325 -143256 -150251 -325794
832374174984513536 -59654 -143428 -150399 -325804
832374175002728064 -59981 -143524 -150406 -325816
832374175020942592 -60426 -143754 -150605 -325743
832374175039157120 -60875 -143967 -150735 -325828
832374175057371648 -61224 -144190 -150769 -325758
832374175075586048 -61712 -144536 -150991 -325803
832374175093800576 -62139 -144754 -151119 -325837
832374175112015104 -62514 -144872 -151199 -325763
832374175130229632 -62856 -145125 -151365 -325781
832374175148444160 -63214 -145215 -151477 -325760
832374175166658688 -63600 -145443 -151601 -325756
832374175184873216 -64042 -145678 -151690 -325740
832374175203087744 -64390 -145902 -151816 -325771
832374175221302272 -64697 -145983 -151916 -325783
832374175239516800 -64769 -146049 -151925 -325744
832374175257731328 -64790 -146055 -151955 -325770
832374175275945856 -64727 -146006 -151974 -325752
832374175294160384 -64619 -145989 -151877 -325768
832374175312374912 -64559 -145965 -151887 -325799
832374175330589440 -64357 -145868 -151817 -325816
832374175348803968 -64154 -145754 -151724 -325825
832374175367018496 -63896 -145588 -151652 -325753
832374175385233024 -63738 -145488 -151616 -325797
832374175403447552 -63630 -145440 -151596 -325831
832374175421662080 -63499 -145401 -151549 -325848
832374175439876608 -63239 -145253 -151443 -325822
832374175458091136 -62968 -145074 -151350 -325756
832374175476305664 -62756 -145030 -151279 -325769
832374175494520192 -62514 -144874 -151231 -325796
832374175512734720 -62298 -144829 -151145 -325820
832374175530949248 -62062 -144666 -151077 -325802
832374175549163776 -61884 -144568 -151036 -325808
832374175567378194 -61922 -144612 -151042 -325771
832374175585592064 -61991 -144613 -151083 -325752
832374175603805952 -62093 -144680 -151129 -325809
832374175622019840 -62207 -144708 -151080 -325800
832374175640233728 -62062 -144675 -151126 -325805
832374175658447488 -61888 -144601 -151032 -325838
832374175676661376 -61923 -144534 -151105 -325806
832374175694875264 -61793 -144546 -150995 -325795
832374175713089152 -61685 -144507 -150968 -325816
832374175731303040 -61528 -144390 -150928 -325727
832374175749516928 -61401 -144300 -150877 -325777
832374175767730816 -61299 -144271 -150899 -325794
832374175785944576 -61209 -144277 -150855 -325750
832374175804158464 -61082 -144169 -150786 -325782
832374175822372352 -60914 -144119 -150721 -325762
832374175840586240 -60656 -143988 -150686 -325781
832374175858800128 -60339 -143774 -150528 -325809
832374175877014016 -60067 -143595 -150470 -325823
832374175895227776 -59866 -143545 -150429 -325800
832374175913441664 -59546 -143390 -150332 -325862
832374175931655552 -59206 -143253 -150135 -325773
832374175949869440 -59177 -143211 -150170 -325762
832374175968083328 -59480 -143315 -150253 -325847
832374175986297216 -59835 -143511 -150370 -325834
832374176004511104 -60194 -143654 -150465 -325802
832374176022724864 -60465 -143829 -150542 -325828
832374176040938752 -60798 -144039 -150723 -325799
832374176059152640 -61235 -144229 -150870 -325840
832374176077366528 -61640 -144461 -150977 -325796
832374176095580416 -62037 -144690 -151082 -325743
832374176113794304 -62386 -144875 -151200 -325770
832374176132008192 -62822 -145049 -151359 -325823
832374176150221952 -63283 -145284 -151410 -325818
832374176168435840 -63723 -145495 -151583 -325816
832374176186649728 -64180 -145739 -151733 -325739
832374176204863616 -64523 -145817 -151829 -325731
832374176223077504 -64622 -145967 -151933 -325773
832374176241291392 -64643 -145981 -151888 -325783
832374176259505280 -64715 -146036 -151958 -325775
832374176277719040 -64682 -146069 -152026 -325815
832374176295932928 -64654 -146017 -151923 -325797
832374176314146816 -64406 -145904 -151836 -325765
832374176332360692 -64343 -145829 -151809 -325794
832374176350574592 -64143 -145652 -151712 -325767
832374176368788480 -64034 -145617 -151707 -325696
832374176387002368 -63864 -145520 -151623 -325722
832374176405216256 -63807 -145502 -151672 -325794
832374176423430016 -63468 -145307 -151529 -325803
832374176441643904 -63145 -145228 -151494 -325835
832374176459857792 -62862 -145074 -151341 -325816
832374176478071680 -62651 -144987 -151310 -325764
832374176496285568 -62384 -144869 -151250 -325777
832374176514499456 -62171 -144746 -151219 -325801
832374176532713344 -61977 -144649 -151063 -325769
832374176550927104 -62056 -144633 -151103 -325866
832374176569140992 -62078 -144654 -151046 -325812
832374176587354880 -62093 -144659 -151120 -325814
832374176605568768 -62144 -144707 -151106 -325788
832374176623782656 -62053 -144645 -151109 -325833
832374176641996544 -61985 -144648 -151103 -325821
832374176660210304 -61864 -144584 -151004 -325781
832374176678424192 -61891 -144570 -151032 -325772
832374176696638080 -61692 -144467 -150954 -325822
832374176714851968 -61652 -144459 -150991 -325809
832374176733065856 -61514 -144388 -150900 -325751
832374176751279744 -61460 -144340 -150920 -325727
832374176769493632 -61402 -144270 -150889 -325849
832374176787707392 -61305 -144232 -150844 -325798
832374176805921280 -61156 -144191 -150832 -325846
832374176824135168 -60896 -144033 -150719 -325857
832374176842349056 -60628 -143913 -150603 -325851
832374176860562944 -60344 -143757 -150452 -325841
832374176878776832 -59983 -143622 -150404 -325818
832374176896990720 -59769 -143504 -150350 -325754
832374176915204480 -59431 -143372 -150172 -325755
832374176933418368 -59304 -143278 -150242 -325834
832374176951632256 -59354 -143301 -150232 -325787
832374176969846144 -59603 -143443 -150281 -325755
832374176988060032 -59965 -143580 -150489 -325770
832374177006273920 -60211 -143675 -150564 -325777
832374177024487808 -60464 -143795 -150542 -325783
832374177042701568 -60779 -143957 -150712 -325775
832374177060915456 -61235 -144173 -150825 -325797
832374177079129344 -61670 -144512 -150935 -325768
832374177097343190 -62045 -144673 -151080 -325831
832374177115556608 -62502 -144883 -151214 -325799
832374177133769984 -62974 -145144 -151401 -325860
832374177151983360 -63452 -145428 -151533 -325798
832374177170196736 -63943 -145678 -151705 -325826
832374177188410240 -64381 -145832 -151830 -325807
832374177206623616 -64512 -145884 -151832 -325819
832374177224836992 -64593 -145983 -151866 -325833
832374177243050368 -64630 -146008 -151932 -325829
832374177261263744 -64710 -146044 -151934 -325838
832374177279477120 -64655 -146012 -151948 -325765
832374177297690624 -64496 -145998 -151910 -325859
832374177315904000 -64422 -145866 -151793 -325835
832374177334117376 -64420 -145882 -151812 -325860
832374177352330752 -64269 -145805 -151805 -325820
832374177370544128 -64153 -145687 -151795 -325854
832374177388757504 -63973 -145691 -151710 -325852
832374177406971008 -63686 -145486 -151606 -325832
832374177425184384 -63399 -145382 -151547 -325838
832374177443397760 -63125 -145221 -151435 -325862
832374177461611136 -62821 -145113 -151373 -325848
832374177479824512 -62596 -145024 -151323 -325856
832374177498037888 -62361 -144882 -151203 -325852
832374177516251392 -62260 -144809 -151133 -325824
832374177534464768 -62203 -144772 -151168 -325835
832374177552678144 -62175 -144762 -151117 -325809
832374177570891520 -62216 -144785 -151198 -325853
832374177589104896 -62183 -144715 -151134 -325887
832374177607318272 -62098 -144652 -151110 -325839
832374177625531776 -62048 -144597 -151136 -325808
832374177643745152 -61928 -144609 -151076 -325818
832374177661958528 -61863 -144603 -151095 -325877
832374177680171904 -61830 -144632 -151083 -325885
832374177698385280 -61713 -144578 -150939 -325854
832374177716598656 -61662 -144526 -151029 -325838
832374177734812160 -61660 -144464 -151030 -325794
832374177753025536 -61589 -144422 -150960 -325874
832374177771238912 -61515 -144426 -150925 -325767
832374177789452288 -61331 -144256 -150862 -325783
832374177807665664 -61002 -144126 -150780 -325838
832374177825879040 -60787 -143987 -150716 -325770
832374177844092416 -60529 -143857 -150634 -325839
832374177862305852 -60279 -143712 -150576 -325842
832374177880518784 -59921 -143536 -150443 -325830
832374177898731776 -59582 -143452 -150367 -325820
832374177916944768 -59400 -143307 -150241 -325791
832374177935157888 -59309 -143242 -150276 -325816
832374177953370880 -59444 -143312 -150277 -325741
832374177971583872 -59741 -143420 -150350 -325775
832374177989796864 -59947 -143546 -150377 -325821
832374178008009856 -60199 -143623 -150452 -325786
832374178026222976 -60491 -143793 -150602 -325744
832374178044435968 -60841 -143994 -150665 -325684
832374178062648960 -61300 -144262 -150828 -325766
832374178080861952 -61645 -144525 -150981 -325777
832374178099075072 -62115 -144669 -151086 -325811
832374178117288064 -62541 -144958 -151210 -325783
832374178135501056 -63175 -145181 -151408 -325809
832374178153714048 -63675 -145465 -151586 -325779
832374178171927040 -64085 -145747 -151680 -325792
832374178190140160 -64341 -145871 -151750 -325745
832374178208353152 -64540 -145925 -151860 -325842
832374178226566144 -64595 -145958 -151917 -325794
832374178244779136 -64592 -145964 -151889 -325781
832374178262992128 -64641 -146035 -151969 -325811
832374178281205248 -64595 -146030 -151921 -325825
832374178299418240 -64565 -145913 -151890 -325763
832374178317631232 -64425 -145846 -151832 -325737
832374178335844224 -64404 -145829 -151826 -325746
832374178354057216 -64341 -145799 -151832 -325799
832374178372270336 -64075 -145674 -151729 -325761
832374178390483328 -63836 -145542 -151688 -325815
832374178408696320 -63469 -145362 -151514 -325784
832374178426909312 -63284 -145261 -151502 -325879
832374178445122304 -62921 -145120 -151405 -325758
832374178463335424 -62683 -145017 -151277 -325784
832374178481548416 -62445 -144872 -151267 -325831
832374178499761408 -62291 -144748 -151079 -325774
832374178517974400 -62189 -144780 -151169 -325799
832374178536187544 -62186 -144665 -151072 -325812
832374178554401408 -62243 -144629 -151046 -325787
832374178572615296 -62181 -144654 -151102 -325802
832374178590829184 -62078 -144616 -151071 -325794
832374178609043072 -61965 -144630 -151072 -325834
832374178627257088 -61859 -144535 -150982 -325777
832374178645470976 -61854 -144590 -151033 -325823
832374178663684864 -61796 -144523 -150997 -325792
832374178681898752 -61775 -144511 -150968 -325740
832374178700112640 -61770 -144466 -150943 -325816
832374178718326528 -61702 -144422 -150941 -325807
832374178736540416 -61670 -144449 -150959 -325790
832374178754754304 -61572 -144411 -150895 -325753
832374178772968320 -61479 -144341 -150881 -325803
832374178791182208 -61238 -144239 -150895 -325832
832374178809396096 -60931 -144103 -150780 -325801
832374178827609984 -60722 -144000 -150688 -325782
832374178845823872 -60442 -143921 -150668 -325799
832374178864037760 -60101 -143653 -150430 -325788
832374178882251648 -59879 -143479 -150416 -325781
832374178900465664 -59632 -143423 -150338 -325800
832374178918679552 -59551 -143339 -150296 -325812
832374178936893440 -59470 -143341 -150256 -325819
832374178955107328 -59639 -143360 -150268 -325803
832374178973321216 -59747 -143441 -150293 -325775
832374178991535104 -59968 -143603 -150483 -325773
832374179009748992 -60197 -143680 -150455 -325786
832374179027963008 -60477 -143829 -150554 -325753
832374179046176896 -60855 -144068 -150740 -325804
832374179064390784 -61248 -144204 -150791 -325773
832374179082604672 -61669 -144489 -150892 -325777
832374179100818560 -62207 -144728 -151115 -325792
832374179119032448 -62701 -144974 -151351 -325826
832374179137246336 -63211 -145208 -151426 -325816
832374179155460224 -63725 -145541 -151643 -325840
832374179173674240 -64007 -145649 -151714 -325751
832374179191888128 -64281 -145780 -151808 -325769
832374179210102016 -64437 -145857 -151817 -325796
832374179228315904 -64501 -145944 -151876 -325766
832374179246529792 -64571 -145940 -151933 -325799
832374179264743758 -64542 -145906 -151880 -325785
832374179282958336 -64602 -145944 -151869 -325841
832374179301172864 -64630 -145972 -151857 -325828
832374179319387392 -64637 -145981 -151831 -325842
832374179337601920 -64595 -145978 -151847 -325798
832374179355816448 -64335 -145831 -151740 -325789
832374179374030976 -64009 -145654 -151634 -325785
832374179392245376 -63620 -145458 -151560 -325727
832374179410459904 -63396 -145328 -151544 -325806
832374179428674432 -63124 -145184 -151383 -325714
832374179446888960 -62867 -145074 -151358 -325756
832374179465103488 -62637 -144904 -151284 -325766
832374179483318016 -62540 -144866 -151266 -325779
832374179501532544 -62390 -144816 -151234 -325760
832374179519747072 -62326 -144729 -151190 -325758
832374179537961600 -62295 -144713 -151170 -325777
832374179556176128 -62222 -144658 -151092 -325777
832374179574390528 -62087 -144647 -151114 -325789
832374179592605056 -61986 -144624 -151118 -325837
832374179610819584 -61893 -144598 -151046 -325806
832374179629034112 -61794 -144520 -150951 -325760
832374179647248640 -61742 -144513 -150959 -325765
832374179665463168 -61729 -144477 -150972 -325788
832374179683677696 -61711 -144464 -150984 -325757
832374179701892224 -61780 -144506 -151050 -325747
832374179720106752 -61800 -144545 -151041 -325747
832374179738321280 -61815 -144466 -151001 -325773
832374179756535808 -61643 -144382 -150977 -325837
832374179774750208 -61384 -144243 -150846 -325791
832374179792964736 -61089 -144114 -150809 -325800
832374179811179264 -60875 -144068 -150707 -325812
832374179829393792 -60586 -143976 -150638 -325822
832374179847608320 -60302 -143771 -150532 -325768
832374179865822848 -60110 -143671 -150450 -325770
832374179884037376 -59842 -143502 -150354 -325743
832374179902251904 -59821 -143485 -150377 -325798
832374179920466432 -59572 -143382 -150300 -325763
832374179938680960 -59554 -143299 -150280 -325813
832374179956895360 -59537 -143363 -150301 -325831
832374179975109888 -59551 -143402 -150213 -325746
832374179993324386 -59847 -143513 -150362 -325761
832374180011538304 -60078 -143622 -150460 -325748
832374180029752192 -60417 -143800 -150582 -325728
832374180047966208 -60842 -144036 -150677 -325737
832374180066180096 -61278 -144234 -150841 -325752
832374180084394112 -61815 -144530 -150969 -325785
832374180102608000 -62380 -144798 -151172 -325771
832374180120822016 -62899 -145055 -151282 -325766
832374180139035904 -63310 -145276 -151454 -325761
832374180157249920 -63643 -145478 -151538 -325772
832374180175463808 -64021 -145654 -151681 -325815
832374180193677696 -64209 -145786 -151775 -325786
832374180211891712 -64402 -145873 -151828 -325819
832374180230105600 -64454 -145862 -151849 -325795
832374180248319616 -64525 -145911 -151881 -325824
832374180266533504 -64597 -145956 -151904 -325787
832374180284747520 -64764 -146015 -151975 -325786
832374180302961408 -64792 -146025 -151922 -325779
832374180321175424 -64718 -146073 -151954 -325851
832374180339389312 -64547 -145959 -151894 -325821
832374180357603328 -64254 -145825 -151805 -325784
832374180375817216 -63927 -145595 -151673 -325791
832374180394031104 -63631 -145494 -151640 -325786
832374180412245120 -63291 -145239 -151450 -325711
832374180430459008 -62953 -145146 -151378 -325806
832374180448673024 -62756 -145022 -151298 -325823
832374180466886912 -62634 -144969 -151233 -325839
832374180485100928 -62490 -144865 -151234 -325777
832374180503314816 -62415 -144839 -151189 -325786
832374180521528832 -62378 -144759 -151146 -325779
832374180539742720 -62206 -144672 -151120 -325714
832374180557956608 -62119 -144615 -151060 -325785
832374180576170624 -61996 -144573 -151060 -325799
832374180594384512 -61893 -144496 -151059 -325733
832374180612598528 -61828 -144545 -151024 -325740
832374180630812416 -61732 -144415 -150908 -325709
832374180649026432 -61752 -144462 -150933 -325768
832374180667240320 -61832 -144495 -151008 -325774
832374180685454316 -61831 -144486 -151012 -325795
832374180703666688 -61866 -144517 -150947 -325763
832374180721879040 -61927 -144564 -151029 -325786
832374180740091392 -61766 -144513 -150960 -325732
832374180758303744 -61499 -144335 -150863 -325766
832374180776516096 -61264 -144269 -150875 -325744
832374180794728448 -60955 -144104 -150756 -325766
832374180812940800 -60772 -144034 -150712 -325795
832374180831153152 -60497 -143833 -150560 -325794
832374180849365504 -60321 -143773 -150538 -325778
832374180867577856 -60120 -143691 -150480 -325798
832374180885790336 -59956 -143583 -150362 -325753
832374180904002688 -59805 -143529 -150334 -325724
832374180922215040 -59632 -143470 -150267 -325755
832374180940427392 -59395 -143250 -150227 -325770
832374180958639744 -59448 -143254 -150273 -325792
832374180976852096 -59582 -143464 -150308 -325798
832374180995064448 -59845 -143505 -150437 -325765
832374181013276800 -60082 -143664 -150469 -325801
832374181031489152 -60416 -143817 -150607 -325789
832374181049701504 -60836 -143973 -150677 -325752
832374181067913856 -61381 -144249 -150813 -325743
832374181086126208 -61912 -144515 -151019 -325713
832374181104338560 -62500 -144826 -151177 -325746
832374181122550912 -62908 -145026 -151273 -325767
832374181140763264 -63271 -145276 -151460 -325721
832374181158975616 -63590 -145438 -151597 -325737
832374181177187968 -63950 -145677 -151733 -325760
832374181195400320 -64169 -145777 -151762 -325726
832374181213612672 -64334 -145866 -151826 -325797
832374181231825024 -64371 -145919 -151833 -325809
832374181250037504 -64545 -145885 -151873 -325773
832374181268249856 -64620 -145965 -151879 -325743
832374181286462208 -64748 -146028 -151895 -325706
832374181304674560 -64861 -146080 -151925 -325779
832374181322886912 -64646 -145979 -151874 -325780
832374181341099264 -64387 -145860 -151796 -325730
832374181359311584 -64197 -145711 -151734 -325772
832374181377525504 -63896 -145549 -151632 -325745
832374181395739392 -63617 -145419 -151559 -325761
832374181413953280 -63234 -145313 -151426 -325766
832374181432167168 -63048 -145154 -151392 -325836
832374181450381056 -62815 -144993 -151319 -325782
832374181468594944 -62668 -144958 -151265 -325769
832374181486808832 -62612 -144895 -151252 -325819
832374181505022720 -62607 -144846 -151256 -325802
832374181523236608 -62375 -144771 -151151 -325785
832374181541450496 -62167 -144696 -151103 -325770
832374181559664384 -61964 -144603 -151068 -325765
832374181577878272 -61988 -144598 -151076 -325837
832374181596092160 -61886 -144546 -151026 -325726
832374181614306048 -61754 -144467 -151034 -325761
832374181632519936 -61703 -144455 -151016 -325745
832374181650733824 -61746 -144471 -151045 -325755
832374181668947712 -61878 -144547 -151043 -325790
832374181687161600 -61949 -144622 -151128 -325801
832374181705375488 -62042 -144618 -151095 -325785
832374181723589376 -61807 -144574 -151075 -325797
832374181741803264 -61647 -144460 -150925 -325773
832374181760017152 -61417 -144359 -150859 -325804
832374181778231040 -61225 -144254 -150879 -325819
832374181796444928 -61045 -144188 -150765 -325781
832374181814658816 -60749 -144007 -150687 -325783
832374181832872704 -60467 -143895 -150623 -325809
832374181851086592 -60327 -143796 -150568 -325767
832374181869300480 -60196 -143678 -150532 -325849
832374181887514368 -60048 -143546 -150437 -325818
832374181905728256 -59750 -143428 -150352 -325748
832374181923942016 -59524 -143346 -150282 -325806
832374181942155904 -59380 -143295 -150192 -325817
832374181960369792 -59486 -143267 -150218 -325823
832374181978583680 -59630 -143393 -150318 -325780
832374181996797568 -59847 -143562 -150405 -325786
832374182015011456 -60021 -143649 -150457 -325796
832374182033225344 -60445 -143864 -150588 -325848
832374182051439232 -60926 -144066 -150720 -325815
832374182069653132 -61522 -144379 -150887 -325797
832374182087867776 -62110 -144682 -151102 -325832
832374182106082432 -62637 -144959 -151224 -325855
832374182124296960 -62981 -145119 -151367 -325765
832374182142511616 -63368 -145332 -151501 -325805
832374182160726144 -63647 -145526 -151623 -325803
832374182178940800 -63995 -145671 -151774 -325837
832374182197155328 -64144 -145825 -151780 -325842
832374182215369984 -64307 -145851 -151842 -325838
832374182233584512 -64503 -145922 -151944 -325855
832374182251799168 -64661 -145901 -151912 -325854
832374182270013696 -64797 -146010 -151921 -325774
832374182288228352 -64945 -146041 -151927 -325814
832374182306442880 -64746 -146025 -151853 -325798
832374182324657536 -64604 -145939 -151885 -325800
832374182342872064 -64383 -145865 -151786 -325802
832374182361086720 -64140 -145738 -151708 -325817
832374182379301248 -63848 -145572 -151635 -325818
832374182397515904 -63537 -145384 -151550 -325796
832374182415730432 -63181 -145241 -151474 -325828
832374182433945088 -63020 -145157 -151382 -325731
832374182452159616 -62835 -145042 -151341 -325754
832374182470374272 -62810 -145054 -151332 -325816
832374182488588800 -62714 -145020 -151279 -325808
832374182506803456 -62421 -144820 -151213 -325808
832374182525017984 -62206 -144758 -151187 -325821
832374182543232640 -62047 -144661 -151147 -325795
832374182561447168 -61943 -144663 -151054 -325782
832374182579661824 -61926 -144592 -151085 -325779
832374182597876352 -61848 -144529 -151041 -325765
832374182616091008 -61832 -144534 -151009 -325797
832374182634305536 -61858 -144517 -150966 -325784
832374182652520192 -61907 -144583 -151044 -325841
832374182670734720 -62040 -144603 -151113 -325821
832374182688949376 -62000 -144647 -151100 -325834
832374182707164032 -61834 -144544 -151086 -325833
832374182725378560 -61666 -144451 -150993 -325788
832374182743593216 -61534 -144430 -150945 -325837
832374182761807744 -61410 -144260 -150907 -325854
832374182780022400 -61207 -144189 -150776 -325808
832374182798236928 -60911 -144017 -150678 -325796
832374182816451482 -60714 -143902 -150619 -325797
832374182834666112 -60618 -143840 -150636 -325780
832374182852880768 -60457 -143758 -150565 -325777
832374182871095424 -60325 -143693 -150529 -325760
832374182889310080 -60069 -143595 -150467 -325802
832374182907524736 -59743 -143490 -150338 -325784
832374182925739392 -59466 -143345 -150297 -325797
832374182943954176 -59381 -143319 -150244 -325825
832374182962168832 -59436 -143259 -150202 -325798
832374182980383488 -59621 -143377 -150257 -325799
832374182998598144 -59830 -143483 -150330 -325771
832374183016812800 -60180 -143663 -150481 -325815
832374183035027456 -60562 -143882 -150635 -325790
832374183053242112 -61070 -144158 -150791 -325778
832374183071456768 -61703 -144416 -150959 -325789
832374183089671424 -62198 -144667 -151143 -325825
832374183107886080 -62495 -144843 -151212 -325774
832374183126100864 -62842 -145040 -151338 -325754
832374183144315520 -63278 -145279 -151479 -325790
832374183162530176 -63642 -145466 -151592 -325786
832374183180744832 -63915 -145651 -151695 -325796
832374183198959488 -64153 -145785 -151758 -325802
832374183217174144 -64392 -145811 -151814 -325784
832374183235388800 -64616 -145931 -151889 -325801
832374183253603456 -64767 -146055 -151927 -325768
832374183271818112 -64988 -146122 -151996 -325780
832374183290032768 -64881 -146073 -151966 -325818
832374183308247552 -64692 -146034 -151894 -325770
832374183326462208 -64547 -145922 -151809 -325814
832374183344676864 -64326 -145887 -151735 -325757
832374183362891520 -64112 -145754 -151740 -325801
832374183381106176 -63706 -145547 -151620 -325786
832374183399320832 -63476 -145428 -151504 -325825
832374183417535488 -63323 -145348 -151485 -325834
832374183435750144 -63146 -145206 -151421 -325850
832374183453964800 -63060 -145178 -151387 -325852
832374183472179456 -62857 -145079 -151388 -325841
832374183490394112 -62634 -144945 -151297 -325794
832374183508608896 -62346 -144815 -151177 -325812
832374183526823546 -62162 -144708 -151116 -325772
832374183545037568 -62045 -144635 -151066 -325796
832374183563251584 -62037 -144630 -151091 -325831
832374183581465600 -61838 -144541 -150993 -325784
832374183599679616 -61808 -144525 -150994 -325785
832374183617893632 -61880 -144541 -151046 -325768
832374183636107648 -61900 -144539 -151066 -325760
832374183654321664 -62017 -144607 -151082 -325801
832374183672535808 -62042 -144598 -151062 -325771
832374183690749824 -61957 -144563 -151018 -325750
832374183708963840 -61828 -144556 -151015 -325755
832374183727177856 -61759 -144510 -150954 -325804
832374183745391872 -61509 -144417 -150907 -325795
832374183763605888 -61441 -144324 -150899 -325778
832374183781819904 -61160 -144177 -150778 -325796
832374183800033920 -60877 -144022 -150694 -325834
832374183818247936 -60770 -144023 -150642 -325767
832374183836461952 -60703 -143923 -150627 -325746
832374183854675968 -60500 -143802 -150596 -325677
832374183872889984 -60274 -143764 -150490 -325748
832374183891104000 -59939 -143505 -150313 -325720
832374183909318144 -59620 -143416 -150334 -325775
832374183927532160 -59375 -143307 -150230 -325792
832374183945746176 -59353 -143220 -150255 -325765
832374183963960192 -59320 -143336 -150289 -325816
832374183982174208 -59554 -143386 -150334 -325780
832374184000388224 -59885 -143542 -150392 -325792
832374184018602240 -60258 -143704 -150506 -325792
832374184036816256 -60813 -144005 -150743 -325809
832374184055030272 -61364 -144246 -150886 -325890
832374184073244288 -61825 -144440 -151004 -325834
832374184091458304 -62202 -144695 -151131 -325826
832374184109672320 -62508 -144910 -151218 -325800
832374184127886336 -62844 -145075 -151293 -325788
832374184146100480 -63165 -145273 -151410 -325757
832374184164314496 -63540 -145475 -151539 -325805
832374184182528512 -63878 -145652 -151688 -325817
832374184200742528 -64309 -145844 -151818 -325816
832374184218956526 -64512 -145942 -151890 -325707
832374184237169664 -64738 -146071 -151945 -325798
832374184255382784 -64875 -146137 -151990 -325819
832374184273595904 -64961 -146137 -152067 -325826
832374184291809152 -64866 -146122 -151998 -325817
832374184310022272 -64730 -146045 -151969 -325791
832374184328235392 -64519 -145938 -151882 -325835
832374184346448512 -64321 -145834 -151854 -325833
832374184364661632 -63961 -145689 -151690 -325814
832374184382874752 -63687 -145508 -151597 -325812
832374184401088000 -63553 -145438 -151578 -325804
832374184419301120 -63347 -145277 -151497 -325833
832374184437514240 -63219 -145208 -151476 -325873
832374184455727360 -63007 -145121 -151369 -325773
832374184473940480 -62789 -145037 -151358 -325775
832374184492153600 -62540 -144876 -151256 -325726
832374184510366848 -62312 -144807 -151211 -325834
832374184528579968 -62182 -144727 -151157 -325781
832374184546793088 -61965 -144646 -151104 -325750
832374184565006208 -61863 -144548 -151047 -325802
832374184583219328 -61822 -144541 -151018 -325790
832374184601432448 -61940 -144558 -151052 -325803
832374184619645696 -61967 -144511 -151060 -325758
832374184637858816 -62060 -144604 -151066 -325767
832374184656071936 -62029 -144592 -151101 -325787
832374184674285056 -61977 -144592 -151117 -325817
832374184692498176 -61895 -144566 -150994 -325791
832374184710711424 -61759 -144537 -151013 -325820
832374184728924544 -61559 -144423 -150897 -325706
832374184747137664 -61418 -144363 -150875 -325755
832374184765350784 -61180 -144268 -150799 -325753
832374184783563904 -61108 -144188 -150837 -325785
832374184801777024 -60977 -144055 -150734 -325829
832374184819990272 -60848 -144004 -150720 -325762
832374184838203392 -60747 -144002 -150676 -325760
832374184856416512 -60456 -143834 -150577 -325806
832374184874629632 -60233 -143716 -150445 -325794
832374184892842752 -59904 -143549 -150382 -325749
832374184911055872 -59561 -143414 -150284 -325775
832374184929269120 -59342 -143268 -150218 -325826
832374184947482240 -59161 -143192 -150182 -325857
832374184965695360 -59308 -143210 -150193 -325846
832374184983908506 -59597 -143375 -150325 -325812
832374185002122240 -59990 -143571 -150450 -325829
832374185020336000 -60350 -143777 -150550 -325811
832374185038549760 -60913 -144048 -150704 -325779
832374185056763520 -61280 -144260 -150843 -325802
832374185074977280 -61714 -144496 -150939 -325745
832374185093191040 -62079 -144661 -151096 -325754
832374185111404800 -62420 -144849 -151205 -325799
832374185129618560 -62779 -145056 -151310 -325789
832374185147832320 -63097 -145239 -151384 -325731
832374185166046080 -63536 -145386 -151518 -325791
832374185184259840 -64040 -145665 -151733 -325815
832374185202473600 -64355 -145823 -151805 -325795
832374185220687360 -64563 -145995 -151895 -325786
832374185238901120 -64765 -146040 -151964 -325770
832374185257114880 -64855 -146096 -151964 -325817
832374185275328640 -64832 -146044 -151934 -325859
832374185293542400 -64709 -146060 -151918 -325830
832374185311756160 -64541 -145898 -151881 -325775
832374185329969920 -64366 -145868 -151802 -325820
832374185348183680 -64183 -145767 -151819 -325829
832374185366397440 -63972 -145690 -151690 -325838
832374185384611200 -63754 -145610 -151596 -325833
832374185402824960 -63564 -145460 -151544 -325807
832374185421038720 -63365 -145295 -151458 -325808
832374185439252480 -63158 -145297 -151436 -325849
832374185457466240 -62931 -145167 -151368 -325883
832374185475680000 -62614 -144974 -151268 -325820
832374185493893760 -62448 -144853 -151230 -325824
832374185512107520 -62235 -144754 -151108 -325831
832374185530321280 -62097 -144712 -151113 -325797
832374185548535040 -61894 -144595 -151074 -325799
832374185566748800 -61937 -144554 -151043 -325790
832374185584962560 -61886 -144549 -151076 -325738
832374185603176320 -61982 -144591 -151053 -325727
832374185621390080 -62076 -144558 -151064 -325788
832374185639603840 -62016 -144574 -151068 -325768
832374185657817666 -62061 -144616 -151033 -325815
832374185676031104 -61911 -144557 -151004 -325751
832374185694244480 -61800 -144545 -151003 -325814
832374185712457728 -61675 -144500 -150977 -325802
832374185730671104 -61513 -144443 -150993 -325808
832374185748884352 -61388 -144380 -150943 -325875
832374185767097728 -61277 -144267 -150870 -325824
832374185785311104 -61135 -144193 -150741 -325817
832374185803524352 -60952 -144105 -150711 -325720
832374185821737728 -60906 -144065 -150671 -325785
832374185839950976 -60715 -143938 -150649 -325829
832374185858164352 -60408 -143857 -150556 -325814
832374185876377728 -60093 -143657 -150444 -325847
832374185894590976 -59777 -143505 -150348 -325806
832374185912804352 -59458 -143300 -150259 -325778
832374185931017600 -59150 -143191 -150159 -325745
832374185949230976 -59204 -143195 -150170 -325788
832374185967444224 -59429 -143331 -150207 -325755
832374185985657600 -59743 -143444 -150351 -325814
832374186003870976 -60066 -143662 -150397 -325774
832374186022084224 -60540 -143857 -150577 -325820
832374186040297600 -60867 -144016 -150746 -325769
832374186058510848 -61264 -144243 -150821 -325715
832374186076724224 -61684 -144435 -151021 -325743
832374186094937600 -62057 -144699 -151140 -325786
832374186113150848 -62451 -144846 -151217 -325728
832374186131364224 -62824 -144998 -151302 -325757
832374186149577472 -63281 -145270 -151442 -325728
832374186167790848 -63665 -145467 -151576 -325731
832374186186004224 -64058 -145680 -151686 -325802
832374186204217472 -64463 -145880 -151868 -325785
832374186222430848 -64642 -146004 -151916 -325815
832374186240644096 -64729 -146069 -152017 -325854
832374186258857472 -64721 -146101 -152006 -325830
832374186277070848 -64735 -146048 -151974 -325798
832374186295284096 -64647 -146011 -151920 -325847
832374186313497472 -64523 -145969 -151920 -325817
832374186331710720 -64283 -145817 -151818 -325825
832374186349924096 -64134 -145725 -151766 -325790
832374186368137472 -63989 -145667 -151743 -325825
832374186386350720 -63765 -145542 -151632 -325773
832374186404564096 -63738 -145512 -151658 -325830
832374186422777274 -63435 -145367 -151501 -325802
832374186440990976 -63239 -145242 -151493 -325814
832374186459204736 -62895 -145065 -151420 -325786
832374186477418496 -62612 -144952 -151275 -325767
832374186495632384 -62400 -144852 -151167 -325820
832374186513846144 -62130 -144729 -151092 -325802
832374186532059904 -61998 -144654 -151042 -325802
832374186550273664 -61933 -144635 -151030 -325773
832374186568487552 -61986 -144608 -151049 -325862
832374186586701312 -62012 -144633 -151054 -325815
832374186604915072 -62064 -144700 -151087 -325834
832374186623128832 -62011 -144618 -150992 -325804
832374186641342720 -61969 -144615 -151014 -325833
832374186659556480 -61910 -144595 -150967 -325787
832374186677770240 -61878 -144604 -151028 -325856
832374186695984000 -61790 -144536 -150990 -325866
832374186714197888 -61601 -144421 -150962 -325815
832374186732411648 -61489 -144362 -150952 -325820
832374186750625408 -61360 -144288 -150874 -325806
832374186768839168 -61339 -144321 -150896 -325850
832374186787053056 -61212 -144134 -150751 -325769
832374186805266816 -61150 -144175 -150830 -325780
832374186823480576 -60887 -144007 -150717 -325760
832374186841694336 -60594 -143965 -150648 -325760
832374186859908224 -60320 -143750 -150500 -325764
832374186878121984 -60052 -143647 -150404 -325794
832374186896335744 -59749 -143502 -150395 -325839
832374186914549504 -59437 -143313 -150225 -325739
832374186932763392 -59270 -143228 -150225 -325800
832374186950977152 -59252 -143249 -150192 -325802
832374186969190912 -59500 -143307 -150270 -325798
832374186987404672 -59845 -143458 -150366 -325777
832374187005618432 -60173 -143731 -150502 -325796
832374187023832320 -60497 -143850 -150588 -325802
832374187042046080 -60866 -144053 -150710 -325789
832374187060259840 -61295 -144266 -150858 -325785
832374187078473600 -61702 -144532 -151009 -325815
832374187096687488 -62152 -144734 -151125 -325818
832374187114901248 -62379 -144892 -151189 -325763
832374187133115008 -62830 -145079 -151327 -325798
832374187151328912 -63401 -145342 -151532 -325806
832374187169542784 -63873 -145600 -151622 -325819
832374187187756672 -64306 -145853 -151809 -325777
832374187205970688 -64503 -145893 -151903 -325803
832374187224184576 -64639 -145999 -151895 -325839
832374187242398592 -64761 -146035 -151919 -325781
832374187260612480 -64769 -146010 -151925 -325746
832374187278826496 -64708 -146055 -151947 -325820
832374187297040384 -64612 -146003 -151956 -325862
832374187315254272 -64391 -145917 -151900 -325872
832374187333468288 -64295 -145885 -151786 -325829
832374187351682176 -64236 -145798 -151739 -325866
832374187369896192 -64124 -145674 -151736 -325802
832374187388110080 -63972 -145583 -151684 -325800
832374187406323968 -63591 -145472 -151584 -325799
832374187424537984 -63326 -145278 -151447 -325782
832374187442751872 -63076 -145198 -151400 -325752
832374187460965888 -62778 -145031 -151305 -325699
832374187479179776 -62552 -144948 -151282 -325809
832374187497393792 -62226 -144771 -151155 -325779
832374187515607680 -62070 -144695 -151115 -325817
832374187533821568 -61971 -144621 -151072 -325754
832374187552035584 -61960 -144635 -151099 -325831
832374187570249472 -62067 -144667 -151100 -325822
832374187588463488 -62127 -144689 -151104 -325856
832374187606677376 -62026 -144637 -151084 -325842
832374187624891264 -61946 -144585 -151084 -325873
832374187643105280 -61912 -144604 -151092 -325852
832374187661319168 -61879 -144620 -151068 -325842
832374187679533184 -61847 -144609 -151084 -325831
832374187697747072 -61701 -144462 -150987 -325823
832374187715961088 -61652 -144355 -150947 -325811
832374187734174976 -61582 -144364 -150938 -325824
832374187752388864 -61511 -144330 -150864 -325798
832374187770602880 -61393 -144237 -150890 -325789
832374187788816768 -61269 -144203 -150856 -325764
832374187807030784 -61005 -144040 -150767 -325777
832374187825244672 -60814 -144027 -150727 -325773
832374187843458688 -60465 -143862 -150570 -325740
832374187861672576 -60233 -143744 -150542 -325762
832374187879886464 -60019 -143652 -150503 -325773
832374187898100480 -59639 -143430 -150335 -325780
832374187916314462 -59383 -143283 -150273 -325766
832374187934528384 -59266 -143194 -150201 -325726
832374187952742272 -59391 -143281 -150222 -325795
832374187970956160 -59664 -143414 -150318 -325829
832374187989170048 -59958 -143594 -150403 -325822
832374188007383936 -60184 -143672 -150464 -325809
832374188025597824 -60468 -143871 -150555 -325817
832374188043811712 -60839 -144032 -150707 -325777
832374188062025600 -61227 -144251 -150792 -325746
832374188080239488 -61670 -144466 -150960 -325791
832374188098453376 -62135 -144697 -151099 -325796
832374188116667264 -62500 -144821 -151228 -325786
832374188134881152 -63018 -145078 -151372 -325796
832374188153095040 -63500 -145276 -151509 -325797
832374188171308928 -64023 -145610 -151640 -325740
832374188189522816 -64323 -145792 -151751 -325777
832374188207736704 -64510 -145955 -151820 -325817
832374188225950592 -64570 -146008 -151838 -325796
832374188244164480 -64644 -146000 -151907 -325841
832374188262378368 -64648 -145996 -151921 -325784
832374188280592256 -64581 -145983 -151968 -325808
832374188298806144 -64555 -145934 -151884 -325820
832374188317020032 -64461 -145901 -151865 -325790
832374188335233920 -64292 -145838 -151777 -325828
832374188353447808 -64237 -145767 -151744 -325788
832374188371661696 -64201 -145673 -151751 -325803
832374188389875584 -63941 -145540 -151630 -325848
832374188408089472 -63532 -145418 -151519 -325781
832374188426303360 -63276 -145329 -151477 -325824
832374188444517248 -62921 -145132 -151342 -325806
832374188462731136 -62688 -145025 -151308 -325784
832374188480944896 -62486 -144895 -151241 -325820
832374188499158784 -62205 -144757 -151152 -325802
832374188517372672 -62127 -144682 -151115 -325778
832374188535586560 -62064 -144644 -151034 -325813
832374188553800448 -62133 -144713 -151093 -325784
832374188572014336 -62190 -144705 -151135 -325788
832374188590228224 -62134 -144633 -151070 -325843
832374188608442112 -62049 -144662 -151097 -325841
832374188626656008 -61945 -144627 -151094 -325835
832374188644870016 -61900 -144547 -151066 -325841
832374188663084032 -61834 -144501 -151063 -325830
832374188681298048 -61669 -144426 -150984 -325804
832374188699512064 -61644 -144456 -151002 -325869
832374188717726080 -61639 -144444 -150922 -325797
832374188735940096 -61574 -144432 -150979 -325781
832374188754154112 -61604 -144375 -150950 -325807
832374188772368256 -61405 -144363 -150880 -325770
832374188790582272 -61211 -144187 -150816 -325819
832374188808796288 -60888 -144025 -150751 -325817
832374188827010304 -60731 -143969 -150701 -325833
832374188845224320 -60489 -143848 -150551 -325809
832374188863438336 -60216 -143740 -150533 -325814
832374188881652352 -59897 -143513 -150437 -325842
832374188899866368 -59661 -143437 -150348 -325785
832374188918080384 -59451 -143302 -150258 -325786
832374188936294400 -59347 -143253 -150218 -325781
832374188954508416 -59530 -143322 -150260 -325757
832374188972722432 -59742 -143453 -150337 -325797
832374188990936448 -59944 -143525 -150413 -325773
832374189009150592 -60123 -143673 -150518 -325784
832374189027364608 -60450 -143823 -150621 -325830
832374189045578624 -60870 -144064 -150711 -325797
832374189063792640 -61311 -144278 -150901 -325804
832374189082006656 -61708 -144447 -150913 -325783
832374189100220672 -62195 -144690 -151129 -325770
832374189118434688 -62705 -144904 -151247 -325821
832374189136648704 -63173 -145233 -151371 -325801
832374189154862720 -63703 -145512 -151592 -325775
832374189173076736 -63954 -145627 -151708 -325766
832374189191290752 -64301 -145779 -151759 -325840
832374189209504768 -64468 -145895 -151862 -325853
832374189227718784 -64428 -145891 -151864 -325838
832374189245932928 -64611 -145977 -151885 -325781
832374189264146944 -64516 -145961 -151861 -325805
832374189282360960 -64530 -145972 -151887 -325763
832374189300574976 -64553 -146030 -151888 -325782
832374189318788988 -64520 -145984 -151916 -325780
832374189337002880 -64523 -145889 -151897 -325800
832374189355216768 -64376 -145844 -151848 -325778
832374189373430656 -64126 -145729 -151775 -325824
832374189391644544 -63809 -145581 -151695 -325812
832374189409858560 -63483 -145404 -151558 -325843
832374189428072448 -63188 -145280 -151500 -325838
832374189446286336 -62939 -145163 -151347 -325834
832374189464500224 -62635 -144977 -151275 -325784
832374189482714112 -62394 -144883 -151218 -325870
832374189500928000 -62232 -144791 -151089 -325779
832374189519141888 -62124 -144687 -151038 -325791
832374189537355776 -62141 -144740 -151125 -325786
832374189555569792 -62181 -144704 -151162 -325802
832374189573783680 -62094 -144668 -151093 -325819
832374189591997568 -61937 -144592 -151038 -325782
832374189610211456 -61930 -144562 -151084 -325813
832374189628425344 -61845 -144519 -151015 -325809
832374189646639232 -61805 -144573 -150989 -325796
832374189664853120 -61703 -144543 -150931 -325757
832374189683067136 -61681 -144513 -151023 -325815
832374189701281024 -61718 -144524 -151072 -325756
832374189719494912 -61693 -144497 -151061 -325804
832374189737708800 -61630 -144397 -151006 -325802
832374189755922688 -61576 -144416 -150969 -325797
832374189774136576 -61410 -144301 -150874 -325785
832374189792350464 -61098 -144242 -150765 -325785
832374189810564480 -60797 -144031 -150677 -325771
832374189828778368 -60561 -143932 -150675 -325773
832374189846992256 -60286 -143833 -150490 -325797
832374189865206144 -60043 -143669 -150441 -325744
832374189883420032 -59875 -143584 -150435 -325808
832374189901633920 -59702 -143459 -150272 -325780
832374189919847808 -59463 -143329 -150207 -325801
832374189938061696 -59433 -143284 -150261 -325736
832374189956275712 -59511 -143336 -150276 -325794
832374189974489600 -59688 -143452 -150334 -325805
832374189992703488 -59833 -143491 -150412 -325791
832374190010917376 -60077 -143627 -150452 -325781
832374190029131264 -60406 -143876 -150567 -325828
832374190047345202 -60760 -144053 -150713 -325854
832374190065558272 -61250 -144306 -150861 -325821
832374190083771392 -61817 -144613 -151058 -325871
832374190101984512 -62291 -144781 -151169 -325839
832374190120197760 -62714 -144977 -151293 -325750
832374190138410880 -63325 -145241 -151491 -325791
832374190156624000 -63712 -145480 -151618 -325780
832374190174837120 -63991 -145714 -151692 -325822
832374190193050240 -64182 -145778 -151767 -325835
832374190211263360 -64305 -145878 -151828 -325726
832374190229476608 -64424 -145887 -151777 -325773
832374190247689728 -64493 -145871 -151833 -325791
832374190265902848 -64497 -145881 -151847 -325681
832374190284115968 -64550 -145914 -151828 -325782
832374190302329088 -64673 -145969 -151889 -325738
832374190320542208 -64636 -145927 -151869 -325751
832374190338755456 -64579 -145939 -151867 -325767
832374190356968576 -64299 -145796 -151779 -325791
832374190375181696 -63913 -145593 -151648 -325784
832374190393394816 -63616 -145472 -151575 -325804
832374190411607936 -63288 -145358 -151484 -325728
832374190429821184 -63049 -145223 -151458 -325784
832374190448034304 -62784 -145046 -151378 -325811
832374190466247424 -62612 -144938 -151316 -325840
832374190484460544 -62503 -144869 -151200 -325802
832374190502673664 -62316 -144829 -151136 -325756
832374190520886784 -62299 -144780 -151205 -325807
832374190539100032 -62278 -144865 -151197 -325814
832374190557313152 -62115 -144662 -151106 -325786
832374190575526272 -62016 -144684 -151047 -325819
832374190593739392 -61931 -144627 -151093 -325820
832374190611952512 -61865 -144554 -150986 -325790
832374190630165632 -61822 -144621 -151038 -325846
832374190648378880 -61684 -144497 -151034 -325815
832374190666592000 -61733 -144483 -151014 -325790
832374190684805120 -61747 -144499 -150982 -325752
832374190703018240 -61813 -144531 -151007 -325788
832374190721231472 -61894 -144575 -151012 -325770
832374190739445120 -61798 -144503 -151030 -325800
832374190757658752 -61569 -144414 -150967 -325768
832374190775872384 -61313 -144275 -150879 -325791
832374190794086016 -61121 -144193 -150801 -325802
832374190812299520 -60842 -144013 -150676 -325783
832374190830513152 -60538 -143901 -150624 -325790
832374190848726784 -60321 -143738 -150511 -325823
832374190866940416 -60121 -143693 -150434 -325805
832374190885154048 -59963 -143569 -150440 -325788
832374190903367680 -59757 -143414 -150316 -325761
832374190921581184 -59694 -143398 -150346 -325873
832374190939794816 -59474 -143300 -150266 -325831
832374190958008448 -59489 -143366 -150312 -325825
832374190976222080 -59670 -143423 -150382 -325797
832374190994435712 -59899 -143598 -150455 -325822
832374191012649344 -60099 -143725 -150503 -325821
832374191030862848 -60365 -143802 -150541 -325792
832374191049076480 -60851 -144082 -150726 -325845
832374191067290112 -61346 -144310 -150908 -325846
832374191085503744 -61920 -144573 -151006 -325845
832374191103717376 -62438 -144883 -151201 -325801
832374191121931008 -62950 -145091 -151373 -325855
832374191140144640 -63290 -145290 -151493 -325818
832374191158358144 -63642 -145484 -151611 -325791
832374191176571776 -63956 -145631 -151716 -325796
832374191194785408 -64251 -145805 -151753 -325778
832374191212999040 -64367 -145841 -151783 -325743
832374191231212672 -64416 -145894 -151839 -325769
832374191249426304 -64465 -145968 -151893 -325815
832374191267639808 -64621 -146012 -151933 -325855
832374191285853440 -64739 -145957 -151956 -325846
832374191304067072 -64742 -146028 -151922 -325771
832374191322280704 -64632 -146003 -151887 -325745
832374191340494336 -64500 -145931 -151852 -325811
832374191358707968 -64218 -145813 -151763 -325817
832374191376921600 -63892 -145635 -151688 -325811
832374191395135104 -63596 -145485 -151638 -325832
832374191413348736 -63251 -145293 -151454 -325843
832374191431562338 -63053 -145170 -151371 -325813
832374191449776384 -62802 -145044 -151259 -325786
832374191467990400 -62726 -144984 -151291 -325848
832374191486204288 -62581 -144912 -151241 -325791
832374191504418304 -62456 -144817 -151170 -325802
832374191522632192 -62342 -144782 -151148 -325823
832374191540846208 -62169 -144754 -151147 -325835
832374191559060224 -62020 -144704 -151110 -325811
832374191577274112 -61885 -144571 -151086 -325811
832374191595488128 -61898 -144632 -151069 -325862
832374191613702016 -61832 -144592 -151026 -325820
832374191631916032 -61749 -144508 -150997 -325803
832374191650130048 -61779 -144508 -151015 -325841
832374191668343936 -61834 -144505 -151048 -325797
832374191686557952 -61826 -144520 -151053 -325753
832374191704771840 -61944 -144586 -151085 -325766
832374191722985856 -61848 -144561 -151068 -325828
832374191741199872 -61676 -144460 -150952 -325822
832374191759413760 -61447 -144317 -150872 -325736
832374191777627776 -61252 -144257 -150895 -325822
832374191795841664 -60943 -144108 -150724 -325830
832374191814055680 -60668 -144044 -150684 -325820
832374191832269568 -60404 -143826 -150574 -325794
832374191850483584 -60306 -143749 -150547 -325819
832374191868697600 -60120 -143707 -150524 -325836
832374191886911488 -60016 -143601 -150422 -325823
832374191905125504 -59903 -143487 -150415 -325841
832374191923339392 -59637 -143366 -150328 -325797
832374191941553408 -59429 -143265 -150259 -325794
832374191959767424 -59448 -143287 -150318 -325838
832374191977981312 -59558 -143458 -150311 -325782
832374191996195328 -59834 -143529 -150383 -325794
832374192014409216 -60048 -143663 -150444 -325836
832374192032623232 -60346 -143814 -150564 -325840
832374192050837248 -60892 -144012 -150764 -325802
832374192069051136 -61470 -144313 -150940 -325816
832374192087265152 -62017 -144638 -151080 -325785
832374192105479040 -62595 -144946 -151240 -325829
832374192123693056 -62902 -145094 -151367 -325780
832374192141906938 -63327 -145339 -151497 -325801
832374192160122240 -63597 -145432 -151586 -325801
832374192178337536 -63924 -145608 -151711 -325835
832374192196552832 -64152 -145723 -151716 -325770
832374192214768256 -64255 -145837 -151819 -325780
832374192232983552 -64390 -145882 -151884 -325846
832374192251198848 -64591 -145996 -151916 -325855
832374192269414144 -64689 -146007 -151915 -325789
832374192287629440 -64836 -146121 -151967 -325811
832374192305844864 -64867 -146115 -151967 -325843
832374192324060160 -64641 -145956 -151931 -325864
832374192342275456 -64352 -145864 -151810 -325843
832374192360490752 -64108 -145682 -151697 -325821
832374192378706048 -63802 -145580 -151597 -325791
832374192396921472 -63498 -145417 -151503 -325771
832374192415136768 -63170 -145189 -151452 -325760
832374192433352064 -62974 -145165 -151375 -325828
832374192451567360 -62857 -144987 -151314 -325778
832374192469782656 -62852 -145008 -151337 -325839
832374192487998080 -62698 -144975 -151301 -325886
832374192506213376 -62488 -144831 -151229 -325797
832374192524428672 -62265 -144797 -151183 -325778
832374192542643968 -62175 -144708 -151155 -325785
832374192560859392 -62067 -144634 -151139 -325858
832374192579074688 -61928 -144560 -151101 -325836
832374192597289984 -61743 -144571 -151053 -325780
832374192615505280 -61708 -144479 -151010 -325781
832374192633720576 -61772 -144506 -151047 -325801
832374192651936000 -61925 -144559 -151027 -325823
832374192670151296 -62052 -144612 -151074 -325823
832374192688366592 -62108 -144571 -151094 -325804
832374192706581888 -61932 -144553 -151058 -325838
832374192724797184 -61784 -144528 -151052 -325899
832374192743012608 -61566 -144485 -150943 -325781
832374192761227904 -61399 -144332 -150913 -325822
832374192779443200 -61247 -144275 -150853 -325794
832374192797658496 -60908 -144068 -150748 -325799
832374192815873792 -60752 -143920 -150704 -325826
832374192834089216 -60532 -143875 -150607 -325804
832374192852304512 -60383 -143786 -150580 -325770
832374192870519808 -60301 -143694 -150520 -325794
832374192888735104 -60140 -143646 -150427 -325763
832374192906950470 -59790 -143483 -150310 -325821
832374192925164416 -59573 -143325 -150291 -325799
832374192943378304 -59380 -143311 -150233 -325814
832374192961592064 -59398 -143303 -150244 -325786
832374192979805952 -59620 -143425 -150298 -325824
832374192998019840 -59797 -143556 -150366 -325832
832374193016233600 -60053 -143698 -150464 -325787
832374193034447488 -60542 -143813 -150613 -325834
832374193052661376 -61100 -144193 -150861 -325836
832374193070875136 -61712 -144474 -150961 -325850
832374193089089024 -62222 -144769 -151135 -325832
832374193107302912 -62599 -144945 -151276 -325788
832374193125516672 -62913 -145072 -151340 -325812
832374193143730560 -63291 -145260 -151487 -325806
832374193161944320 -63612 -145468 -151598 -325817
832374193180158208 -63903 -145611 -151682 -325817
832374193198372096 -64087 -145765 -151705 -325806
832374193216585856 -64238 -145831 -151805 -325820
832374193234799744 -64488 -145938 -151883 -325823
832374193253013632 -64684 -146047 -151950 -325801
832374193271227392 -64876 -146134 -151976 -325862
832374193289441280 -64838 -146092 -151982 -325817
832374193307655168 -64705 -145962 -151956 -325743
832374193325868928 -64521 -145887 -151839 -325772
832374193344082816 -64287 -145776 -151845 -325782
832374193362296704 -64058 -145658 -151748 -325806
832374193380510464 -63746 -145534 -151621 -325798
832374193398724352 -63430 -145360 -151521 -325797
832374193416938240 -63185 -145267 -151507 -325768
832374193435152000 -63092 -145216 -151365 -325751
832374193453365888 -63066 -145126 -151367 -325812
832374193471579776 -62902 -145109 -151310 -325860
832374193489793536 -62644 -145000 -151293 -325811
832374193508007424 -62413 -144840 -151187 -325870
832374193526221312 -62189 -144749 -151168 -325852
832374193544435072 -62072 -144658 -151157 -325802
832374193562648960 -61935 -144618 -151049 -325800
832374193580862680 -61832 -144506 -151002 -325851
832374193599076224 -61747 -144574 -151052 -325801
832374193617289728 -61742 -144526 -150995 -325789
832374193635503232 -61828 -144541 -151021 -325835
832374193653716864 -61950 -144614 -151065 -325787
832374193671930368 -62106 -144664 -151149 -325870
832374193690143872 -62062 -144648 -151122 -325867
832374193708357376 -61854 -144602 -151079 -325788
832374193726571008 -61726 -144505 -151043 -325851
832374193744784512 -61556 -144421 -150969 -325830
832374193762998016 -61424 -144377 -150912 -325858
832374193781211520 -61155 -144185 -150818 -325865
832374193799425152 -60879 -144082 -150710 -325828
832374193817638656 -60709 -144001 -150671 -325791
832374193835852160 -60601 -143976 -150637 -325796
832374193854065664 -60470 -143866 -150567 -325828
832374193872279168 -60309 -143794 -150579 -325830
832374193890492800 -60019 -143607 -150437 -325788
832374193908706304 -59722 -143431 -150323 -325834
832374193926919808 -59444 -143304 -150206 -325817
832374193945133312 -59330 -143281 -150185 -325789
832374193963346944 -59383 -143350 -150233 -325823
832374193981560448 -59507 -143374 -150236 -325819
832374193999773952 -59847 -143494 -150403 -325817
832374194017987456 -60219 -143676 -150584 -325835
832374194036201088 -60686 -143935 -150704 -325801
832374194054414592 -61210 -144228 -150785 -325818
832374194072628096 -61656 -144435 -150941 -325806
832374194090841600 -62082 -144703 -151136 -325840
832374194109055104 -62381 -144899 -151236 -325790
832374194127268736 -62868 -145132 -151350 -325800
832374194145482240 -63194 -145355 -151535 -325821
832374194163695744 -63629 -145536 -151616 -325855
832374194181909248 -63911 -145629 -151742 -325863
832374194200122880 -64183 -145743 -151791 -325819
832374194218336384 -64366 -145841 -151788 -325839
832374194236549888 -64642 -145965 -151915 -325816
832374194254763392 -64857 -146053 -151956 -325778
832374194272977024 -64883 -146186 -152055 -325834
832374194291190492 -64872 -146102 -151978 -325836
832374194309403648 -64636 -145999 -151953 -325868
832374194327616768 -64452 -145877 -151871 -325788
832374194345829888 -64271 -145799 -151869 -325798
832374194364043136 -63919 -145711 -151743 -325820
832374194382256256 -63633 -145487 -151584 -325862
832374194400469376 -63402 -145356 -151443 -325809
832374194418682496 -63259 -145229 -151421 -325848
832374194436895616 -63200 -145246 -151439 -325846
832374194455108736 -63108 -145188 -151408 -325836
832374194473321984 -62871 -145036 -151400 -325820
832374194491535104 -62573 -144952 -151272 -325789
832374194509748224 -62339 -144792 -151180 -325841
832374194527961344 -62125 -144703 -151081 -325781
832374194546174464 -62047 -144697 -151106 -325789
832374194564387584 -61876 -144607 -150985 -325783
832374194582600832 -61847 -144564 -151038 -325790
832374194600813952 -61837 -144526 -150994 -325795
832374194619027072 -61880 -144542 -151001 -325807
832374194637240192 -62026 -144632 -151106 -325789
832374194655453312 -62139 -144649 -151188 -325806
832374194673666560 -62045 -144645 -151155 -325818
832374194691879680 -61896 -144584 -151075 -325806
832374194710092800 -61729 -144579 -151036 -325772
832374194728305920 -61576 -144445 -150963 -325791
832374194746519040 -61424 -144381 -150974 -325855
832374194764732160 -61229 -144293 -150827 -325872
832374194782945408 -61069 -144186 -150803 -325871
832374194801158528 -60926 -144075 -150719 -325869
832374194819371648 -60771 -143937 -150635 -325768
832374194837584768 -60678 -143874 -150636 -325804
832374194855797888 -60487 -143867 -150636 -325820
832374194874011008 -60240 -143768 -150567 -325811
832374194892224256 -59880 -143532 -150393 -325814
832374194910437376 -59579 -143435 -150347 -325814
832374194928650496 -59270 -143293 -150213 -325792
832374194946863616 -59241 -143225 -150198 -325879
832374194965076736 -59358 -143251 -150235 -325853
832374194983289856 -59596 -143417 -150294 -325826
832374195001503046 -59879 -143569 -150385 -325813
832374195019716224 -60275 -143723 -150546 -325812
832374195037929344 -60791 -143990 -150656 -325808
832374195056142464 -61246 -144247 -150846 -325864
832374195074355712 -61637 -144489 -150959 -325821
832374195092568832 -62101 -144675 -151123 -325817
832374195110781952 -62442 -144871 -151275 -325749
832374195128995072 -62772 -145069 -151364 -325786
832374195147208192 -63250 -145281 -151480 -325824
832374195165421312 -63622 -145486 -151600 -325843
832374195183634560 -64016 -145691 -151793 -325832
832374195201847680 -64313 -145792 -151776 -325856
832374195220060800 -64609 -145961 -151881 -325807
832374195238273920 -64796 -146061 -151950 -325788
832374195256487040 -64814 -146032 -151968 -325832
832374195274700160 -64762 -146000 -151954 -325794
832374195292913408 -64683 -146042 -151931 -325774
832374195311126528 -64610 -146012 -151885 -325828
832374195329339648 -64420 -145947 -151816 -325850
832374195347552768 -64130 -145811 -151780 -325831
832374195365765888 -63949 -145632 -151707 -325869
832374195383979136 -63710 -145465 -151623 -325819
832374195402192256 -63518 -145395 -151528 -325815
832374195420405376 -63448 -145345 -151536 -325877
832374195438618496 -63305 -145269 -151462 -325796
832374195456831616 -63032 -145206 -151427 -325846
832374195475044736 -62801 -144992 -151368 -325858
832374195493257984 -62494 -144900 -151223 -325850
832374195511471104 -62243 -144781 -151144 -325846
832374195529684224 -62061 -144698 -151098 -325808
832374195547897344 -61952 -144659 -151099 -325799
832374195566110464 -61880 -144585 -151029 -325834
832374195584323584 -61940 -144575 -151076 -325824
832374195602536832 -61956 -144539 -151063 -325831
832374195620749952 -61974 -144543 -151120 -325848
832374195638963072 -62085 -144639 -151081 -325858
832374195657176192 -61957 -144625 -151077 -325835
832374195675389312 -61915 -144591 -151045 -325834
832374195693602432 -61776 -144545 -150990 -325831
832374195711815600 -61666 -144547 -150991 -325896
832374195730029696 -61521 -144441 -150913 -325822
832374195748243840 -61347 -144344 -150916 -325812
832374195766458112 -61177 -144269 -150821 -325798
832374195784672256 -61158 -144159 -150806 -325804
832374195802886528 -60991 -144130 -150769 -325819
832374195821100672 -60947 -144095 -150733 -325850
832374195839314816 -60730 -143953 -150718 -325839
832374195857529088 -60450 -143782 -150560 -325794
832374195875743232 -60112 -143630 -150449 -325751
832374195893957504 -59746 -143534 -150303 -325804
832374195912171648 -59508 -143350 -150269 -325834
832374195930385792 -59303 -143256 -150255 -325796
832374195948600064 -59199 -143257 -150201 -325788
832374195966814208 -59401 -143311 -150300 -325817
832374195985028480 -59697 -143501 -150379 -325814
832374196003242624 -60117 -143675 -150564 -325833
832374196021456896 -60506 -143815 -150604 -325822
832374196039671040 -60910 -144036 -150755 -325852
832374196057885184 -61254 -144240 -150846 -325819
832374196076099456 -61645 -144448 -151036 -325775
832374196094313600 -62082 -144706 -151104 -325824
832374196112527872 -62430 -144894 -151262 -325815
832374196130742016 -62858 -145124 -151355 -325794
832374196148956160 -63267 -145283 -151508 -325829
832374196167170432 -63667 -145462 -151599 -325804
832374196185384576 -64128 -145679 -151752 -325858
832374196203598848 -64457 -145851 -151783 -325834
832374196221812992 -64655 -145960 -151831 -325826
832374196240027136 -64776 -146032 -151945 -325843
832374196258241408 -64826 -146046 -151952 -325858
832374196276455552 -64715 -146033 -151951 -325801
832374196294669824 -64682 -145945 -151946 -325806
832374196312883968 -64511 -145947 -151931 -325786
832374196331098112 -64268 -145843 -151839 -325808
832374196349312384 -64063 -145691 -151748 -325805
832374196367526528 -63943 -145676 -151680 -325767
832374196385740800 -63846 -145593 -151712 -325821
832374196403954944 -63718 -145470 -151576 -325808
832374196422169088 -63490 -145359 -151522 -325799
832374196440383360 -63153 -145249 -151429 -325724
832374196458597504 -62974 -145188 -151344 -325901
832374196476811832 -62691 -145005 -151348 -325849
832374196495024896 -62462 -144906 -151213 -325798
832374196513238016 -62173 -144758 -151097 -325820
832374196531451136 -61928 -144635 -151063 -325822
832374196549664256 -61899 -144563 -151060 -325749
832374196567877248 -61976 -144605 -151089 -325845
832374196586090368 -61957 -144575 -151060 -325852
832374196604303488 -61967 -144603 -151103 -325813
832374196622516608 -62044 -144698 -151108 -325833
832374196640729728 -61939 -144675 -151068 -325830
832374196658942848 -61892 -144615 -151094 -325835
832374196677155968 -61807 -144568 -151026 -325785
832374196695369088 -61728 -144533 -150962 -325814
832374196713582080 -61607 -144426 -150935 -325801
832374196731795200 -61481 -144312 -150866 -325855
832374196750008320 -61348 -144295 -150906 -325829
832374196768221440 -61335 -144276 -150873 -325811
832374196786434560 -61262 -144300 -150845 -325821
832374196804647680 -61121 -144155 -150856 -325817
832374196822860800 -60899 -144044 -150758 -325825
832374196841073920 -60620 -143898 -150655 -325814
832374196859286912 -60351 -143741 -150563 -325845
832374196877500032 -60082 -143614 -150460 -325836
832374196895713152 -59740 -143455 -150338 -325796
832374196913926272 -59455 -143311 -150234 -325846
832374196932139392 -59246 -143267 -150240 -325864
832374196950352512 -59318 -143201 -150187 -325821
832374196968565632 -59532 -143306 -150278 -325850
832374196986778624 -59758 -143488 -150393 -325886
832374197004991744 -60173 -143626 -150525 -325788
832374197023204864 -60447 -143805 -150555 -325791
832374197041417984 -60873 -143998 -150672 -325805
832374197059631104 -61299 -144232 -150814 -325789
832374197077844224 -61732 -144490 -150967 -325816
832374197096057344 -62174 -144721 -151083 -325805
832374197114270464 -62396 -144813 -151139 -325800
832374197132483456 -62806 -145053 -151321 -325848
832374197150696576 -63248 -145317 -151457 -325839
832374197168909696 -63773 -145517 -151604 -325843
832374197187122860 -64223 -145739 -151786 -325824
832374197205335680 -64496 -145860 -151861 -325816
832374197223548544 -64644 -145960 -151945 -325853
832374197241761408 -64699 -146032 -151966 -325828
832374197259974272 -64759 -145987 -151939 -325796
832374197278187136 -64731 -146082 -151964 -325821
832374197296400000 -64618 -145982 -151878 -325839
832374197314612736 -64420 -145915 -151821 -325789
832374197332825600 -64337 -145832 -151900 -325833
832374197351038464 -64160 -145714 -151751 -325830
832374197369251328 -63989 -145636 -151707 -325811
832374197387464192 -63864 -145524 -151592 -325794
832374197405677056 -63637 -145449 -151603 -325821
832374197423889920 -63388 -145320 -151505 -325825
832374197442102784 -63044 -145141 -151400 -325812
832374197460315648 -62839 -145102 -151366 -325847
832374197478528512 -62607 -145009 -151300 -325859
832374197496741248 -62346 -144831 -151213 -325847
832374197514954112 -62150 -144710 -151143 -325833
832374197533166976 -62035 -144694 -151070 -325799
832374197551379840 -62010 -144688 -151102 -325791
832374197569592704 -62064 -144661 -151098 -325859
832374197587805568 -62084 -144649 -151140 -325831
832374197606018432 -62085 -144650 -151174 -325924
832374197624231296 -61957 -144637 -151152 -325916
832374197642444160 -61946 -144592 -151092 -325897
832374197660657024 -61977 -144651 -151045 -325872
832374197678869888 -61865 -144626 -151084 -325854
832374197697082624 -61741 -144564 -150992 -325820
832374197715295488 -61637 -144466 -150978 -325886
832374197733508352 -61472 -144402 -150930 -325862
832374197751721216 -61410 -144372 -150931 -325863
832374197769934080 -61405 -144356 -150904 -325875
832374197788146944 -61330 -144302 -150837 -325816
832374197806359808 -61137 -144154 -150772 -325845
832374197824572672 -60870 -144070 -150640 -325771
832374197842785536 -60617 -143979 -150566 -325879
832374197860998400 -60294 -143826 -150559 -325848
832374197879211136 -60066 -143645 -150444 -325867
832374197897424000 -59640 -143505 -150323 -325839
832374197915636864 -59420 -143368 -150286 -325801
832374197933849728 -59326 -143277 -150238 -325809
832374197952062632 -59315 -143229 -150270 -325840
832374197970275968 -59589 -143383 -150348 -325894
832374197988489344 -60008 -143570 -150458 -325843
832374198006702720 -60229 -143717 -150511 -325848
832374198024916096 -60479 -143833 -150611 -325840
832374198043129472 -60877 -144022 -150695 -325843
832374198061342720 -61260 -144278 -150855 -325811
832374198079556096 -61697 -144512 -151011 -325808
832374198097769472 -62005 -144728 -151097 -325813
832374198115982848 -62336 -144889 -151166 -325777
832374198134196224 -62888 -145133 -151379 -325839
832374198152409600 -63470 -145381 -151567 -325846
832374198170622976 -63927 -145602 -151660 -325821
832374198188836352 -64337 -145824 -151819 -325829
832374198207049600 -64455 -145957 -151842 -325807
832374198225262976 -64597 -145994 -151842 -325778
832374198243476352 -64619 -145977 -151846 -325838
832374198261689728 -64611 -145985 -151867 -325723
832374198279903104 -64588 -145931 -151855 -325824
832374198298116480 -64493 -145926 -151844 -325789
832374198316329856 -64458 -145907 -151806 -325806
832374198334543232 -64413 -145816 -151792 -325839
832374198352756480 -64296 -145819 -151771 -325846
832374198370969856 -64154 -145710 -151743 -325804
832374198389183232 -63836 -145526 -151673 -325805
832374198407396608 -63523 -145394 -151539 -325828
832374198425609984 -63271 -145304 -151475 -325821
832374198443823360 -62988 -145108 -151374 -325794
832374198462036736 -62704 -145017 -151294 -325765
832374198480250112 -62471 -144942 -151258 -325771
832374198498463360 -62230 -144718 -151201 -325845
832374198516676736 -62094 -144706 -151130 -325836
832374198534890112 -62026 -144626 -151100 -325833
832374198553103488 -62022 -144604 -151075 -325831
832374198571316864 -62102 -144639 -151078 -325816
832374198589530248 -62111 -144719 -151149 -325809
832374198607744768 -61964 -144660 -151096 -325813
832374198625959296 -61928 -144646 -151095 -325836
832374198644173824 -61880 -144663 -151012 -325780
832374198662388352 -61851 -144599 -150969 -325766
832374198680602752 -61757 -144517 -150991 -325794
832374198698817280 -61670 -144426 -150973 -325779
832374198717031808 -61623 -144398 -150957 -325786
832374198735246336 -61609 -144364 -150962 -325765
832374198753460864 -61491 -144331 -150897 -325795
832374198771675392 -61481 -144302 -150923 -325832
832374198789889920 -61291 -144227 -150835 -325845
832374198808104448 -60993 -144153 -150787 -325829
832374198826318848 -60799 -143928 -150653 -325809
832374198844533376 -60529 -143861 -150593 -325817
832374198862747904 -60125 -143698 -150469 -325803
832374198880962432 -59875 -143596 -150405 -325825
832374198899176960 -59607 -143402 -150350 -325798
832374198917391488 -59399 -143266 -150228 -325782
832374198935606016 -59293 -143220 -150240 -325814
832374198953820544 -59493 -143355 -150259 -325808
832374198972034944 -59721 -143439 -150341 -325738
832374198990249472 -59968 -143612 -150450 -325797
832374199008464000 -60077 -143662 -150455 -325749
832374199026678528 -60373 -143759 -150522 -325777
832374199044893056 -60811 -144001 -150650 -325767
832374199063107584 -61229 -144221 -150842 -325796
832374199081322112 -61554 -144422 -150906 -325801
832374199099536640 -62072 -144702 -151084 -325797
832374199117751040 -62593 -144911 -151202 -325814
832374199135965568 -63032 -145112 -151319 -325782
832374199154180096 -63562 -145375 -151513 -325795
832374199172394624 -63999 -145609 -151711 -325773
832374199190609152 -64251 -145754 -151749 -325766
832374199208823680 -64425 -145882 -151805 -325748
832374199227038208 -64550 -145915 -151857 -325734
832374199245252736 -64564 -145924 -151842 -325727
832374199263467136 -64641 -145898 -151847 -325770
832374199281681664 -64521 -145940 -151836 -325758
832374199299896208 -64422 -145914 -151843 -325752
832374199318109440 -64439 -145825 -151897 -325788
832374199336322688 -64428 -145815 -151862 -325783
832374199354536064 -64283 -145702 -151811 -325736
832374199372749312 -64110 -145644 -151751 -325709
832374199390962560 -63796 -145497 -151641 -325772
832374199409175936 -63476 -145383 -151553 -325794
832374199427389184 -63186 -145225 -151422 -325819
832374199445602560 -62933 -145086 -151319 -325781
832374199463815808 -62701 -144972 -151317 -325830
832374199482029056 -62410 -144881 -151210 -325841
832374199500242432 -62231 -144738 -151116 -325837
832374199518455680 -62131 -144682 -151123 -325799
832374199536668928 -62076 -144669 -151102 -325767
832374199554882304 -62158 -144711 -151128 -325799
832374199573095552 -62150 -144775 -151114 -325822
832374199591308928 -62025 -144686 -151092 -325801
832374199609522176 -61919 -144662 -151075 -325872
832374199627735424 -61824 -144548 -150973 -325816
832374199645948800 -61770 -144491 -150957 -325809
832374199664162048 -61647 -144499 -151001 -325797
832374199682375296 -61670 -144493 -151035 -325806
832374199700588672 -61694 -144472 -151020 -325859
832374199718801920 -61647 -144471 -151013 -325859
832374199737015168 -61564 -144332 -150946 -325781
832374199755228544 -61576 -144378 -150951 -325791
832374199773441792 -61362 -144292 -150852 -325837
832374199791655168 -61144 -144124 -150770 -325798
832374199809868416 -60897 -144050 -150717 -325848
832374199828081664 -60657 -144005 -150727 -325886
832374199846295040 -60409 -143853 -150568 -325859
832374199864508288 -60139 -143752 -150482 -325809
832374199882721536 -59939 -143520 -150441 -325819
832374199900934912 -59675 -143421 -150310 -325755
832374199919148160 -59561 -143382 -150370 -325831
832374199937361408 -59442 -143348 -150296 -325843
832374199955574784 -59592 -143445 -150311 -325814
832374199973788032 -59676 -143456 -150357 -325816
832374199992001408 -59873 -143522 -150381 -325841
832374200010214656 -60168 -143652 -150515 -325862
832374200028428008 -60424 -143808 -150555 -325832
832374200046642688 -60836 -144029 -150673 -325848
832374200064857344 -61170 -144230 -150740 -325846
832374200083072000 -61702 -144507 -150978 -325769
832374200101286656 -62210 -144676 -151127 -325839
832374200119501312 -62667 -145004 -151262 -325807
832374200137715968 -63194 -145205 -151409 -325728
832374200155930752 -63578 -145460 -151547 -325785
832374200174145408 -63991 -145606 -151700 -325762
832374200192360064 -64182 -145780 -151766 -325801
832374200210574720 -64274 -145838 -151844 -325774
832374200228789376 -64398 -145884 -151825 -325773
832374200247004032 -64449 -145906 -151869 -325790
832374200265218688 -64569 -145961 -151880 -325796
832374200283433344 -64565 -145943 -151869 -325769
832374200301648000 -64590 -145939 -151844 -325735
832374200319862656 -64657 -145972 -151884 -325824
832374200338077440 -64529 -145890 -151900 -325800
832374200356292096 -64342 -145860 -151802 -325848
832374200374506752 -64067 -145685 -151722 -325881
832374200392721408 -63670 -145514 -151590 -325818
832374200410936064 -63345 -145313 -151454 -325833
832374200429150720 -63106 -145246 -151446 -325814
832374200447365376 -62799 -145094 -151308 -325787
832374200465580032 -62563 -144933 -151259 -325784
832374200483794688 -62379 -144840 -151148 -325764
832374200502009344 -62272 -144817 -151160 -325805
832374200520224128 -62265 -144797 -151134 -325753
832374200538438784 -62293 -144707 -151134 -325812
832374200556653440 -62153 -144750 -151163 -325777
832374200574868096 -62029 -144653 -151108 -325784
832374200593082752 -61890 -144587 -151046 -325762
832374200611297408 -61868 -144583 -151050 -325769
832374200629512064 -61828 -144600 -151035 -325791
832374200647726720 -61677 -144477 -150966 -325799
832374200665941376 -61741 -144474 -151032 -325838
832374200684156032 -61774 -144499 -150973 -325829
832374200702370688 -61852 -144507 -150912 -325867
832374200720585404 -61830 -144519 -151007 -325834
832374200738800000 -61764 -144464 -150944 -325772
832374200757014656 -61598 -144404 -150939 -325798
832374200775229312 -61353 -144331 -150859 -325829
832374200793443968 -61111 -144171 -150774 -325790
832374200811658624 -60826 -144032 -150719 -325797
832374200829873280 -60669 -143939 -150621 -325798
832374200848088064 -60279 -143763 -150500 -325785
832374200866302720 -60018 -143675 -150429 -325799
832374200884517376 -59878 -143608 -150435 -325825
832374200902732032 -59714 -143372 -150352 -325745
832374200920946688 -59594 -143294 -150250 -325743
832374200939161344 -59497 -143334 -150313 -325739
832374200957376000 -59552 -143328 -150284 -325801
832374200975590656 -59671 -143373 -150380 -325864
832374200993805312 -59894 -143516 -150413 -325791
832374201012019968 -60089 -143614 -150451 -325748
832374201030234752 -60380 -143788 -150541 -325780
832374201048449408 -60717 -143978 -150650 -325825
832374201066664064 -61281 -144244 -150882 -325812
832374201084878720 -61824 -144510 -151015 -325790
832374201103093376 -62324 -144719 -151121 -325792
832374201121308032 -62887 -145056 -151248 -325795
832374201139522688 -63331 -145225 -151500 -325816
832374201157737344 -63737 -145453 -151641 -325872
832374201175952000 -63976 -145609 -151725 -325804
832374201194166656 -64138 -145671 -151750 -325735
832374201212381312 -64320 -145788 -151808 -325806
832374201230596096 -64399 -145819 -151813 -325829
832374201248810752 -64426 -145878 -151868 -325768
832374201267025408 -64497 -145914 -151879 -325749
832374201285240064 -64602 -145946 -151908 -325812
832374201303454720 -64631 -145957 -151843 -325761
832374201321669376 -64605 -145936 -151817 -325730
832374201339884032 -64495 -145914 -151787 -325794
832374201358098688 -64271 -145813 -151737 -325756
832374201376313344 -63932 -145633 -151649 -325787
832374201394528126 -63581 -145404 -151564 -325740
832374201412740480 -63292 -145343 -151506 -325752
832374201430952832 -62938 -145140 -151384 -325774
832374201449165312 -62760 -145005 -151256 -325790
832374201467377664 -62679 -144944 -151272 -325805
832374201485590016 -62508 -144846 -151205 -325779
832374201503802496 -62360 -144771 -151133 -325801
832374201522014848 -62317 -144826 -151120 -325826
832374201540227328 -62180 -144684 -151084 -325765
832374201558439680 -62108 -144696 -151071 -325758
832374201576652032 -61934 -144591 -151036 -325747
832374201594864512 -61953 -144574 -151049 -325824
832374201613076864 -61818 -144536 -151043 -325838
832374201631289216 -61731 -144486 -151028 -325820
832374201649501696 -61754 -144519 -150974 -325811
832374201667714048 -61824 -144510 -150995 -325840
832374201685926528 -61898 -144585 -151066 -325847
832374201704138880 -61912 -144536 -151008 -325832
832374201722351232 -61873 -144523 -151024 -325774
832374201740563712 -61691 -144475 -150979 -325788
832374201758776064 -61477 -144434 -150923 -325835
832374201776988416 -61309 -144349 -150925 -325851
832374201795200896 -61015 -144135 -150748 -325809
832374201813413248 -60765 -144044 -150707 -325822
832374201831625600 -60550 -143878 -150606 -325757
832374201849838080 -60350 -143751 -150519 -325818
832374201868050432 -60135 -143662 -150491 -325852
832374201886262912 -59997 -143661 -150396 -325830
832374201904475264 -59865 -143495 -150363 -325837
832374201922687616 -59580 -143366 -150234 -325738
832374201940900096 -59439 -143346 -150227 -325789
832374201959112448 -59429 -143334 -150282 -325762
832374201977324800 -59628 -143406 -150308 -325785
832374201995537280 -59845 -143539 -150419 -325826
832374202013749632 -60101 -143644 -150465 -325771
832374202031961984 -60408 -143782 -150528 -325822
832374202050174464 -60820 -144015 -150679 -325816
832374202068386816 -61391 -144294 -150872 -325836
832374202086599296 -61919 -144604 -151080 -325781
832374202104811686 -62496 -144853 -151308 -325824
832374202123025536 -62940 -145063 -151424 -325863
832374202141239424 -63277 -145196 -151436 -325816
832374202159453312 -63614 -145455 -151552 -325760
832374202177667200 -63958 -145656 -151708 -325800
832374202195880960 -64063 -145731 -151664 -325764
832374202214094848 -64226 -145850 -151759 -325814
832374202232308736 -64329 -145887 -151776 -325769
832374202250522624 -64482 -145975 -151896 -325787
832374202268736512 -64641 -145958 -151891 -325743
832374202286950400 -64821 -145998 -151954 -325837
832374202305164288 -64772 -146076 -151912 -325769
832374202323378048 -64688 -146042 -151904 -325883
832374202341591936 -64443 -145909 -151861 -325809
832374202359805824 -64145 -145754 -151799 -325802
832374202378019712 -63835 -145631 -151681 -325833
832374202396233600 -63545 -145489 -151528 -325825
832374202414447488 -63255 -145292 -151509 -325817
832374202432661376 -62950 -145157 -151391 -325780
832374202450875136 -62827 -145070 -151349 -325795
832374202469089024 -62631 -144959 -151310 -325825
832374202487302912 -62606 -144963 -151253 -325804
832374202505516800 -62533 -144888 -151242 -325829
832374202523730688 -62287 -144767 -151159 -325822
832374202541944576 -62093 -144638 -151061 -325749
832374202560158336 -61935 -144584 -151043 -325762
832374202578372224 -61900 -144574 -151040 -325826
832374202596586112 -61875 -144501 -151058 -325775
832374202614800000 -61722 -144465 -150966 -325787
832374202633013888 -61658 -144434 -150980 -325771
832374202651227776 -61752 -144518 -150950 -325856
832374202669441664 -61834 -144528 -150999 -325797
832374202687655424 -61824 -144592 -151045 -325769
832374202705869312 -61875 -144563 -151015 -325812
832374202724083200 -61666 -144484 -151003 -325815
832374202742297088 -61535 -144368 -150928 -325834
832374202760510976 -61390 -144309 -150897 -325806
832374202778724864 -61261 -144211 -150809 -325822
832374202796938752 -60928 -144034 -150734 -325836
832374202815152512 -60634 -143943 -150624 -325852
832374202833366400 -60498 -143886 -150597 -325884
832374202851580288 -60277 -143733 -150513 -325875
832374202869794192 -60159 -143738 -150546 -325823
832374202888008960 -60034 -143631 -150487 -325824
832374202906223744 -59816 -143540 -150384 -325847
832374202924438528 -59455 -143313 -150236 -325775
832374202942653312 -59301 -143263 -150258 -325804
832374202960868096 -59366 -143280 -150250 -325854
832374202979082880 -59513 -143312 -150358 -325840
832374202997297664 -59765 -143492 -150450 -325799
832374203015512448 -60060 -143620 -150507 -325849
832374203033727232 -60391 -143805 -150570 -325828
832374203051942144 -60996 -144051 -150775 -325851
832374203070156928 -61543 -144416 -150911 -325843
832374203088371712 -62081 -144741 -151171 -325847
832374203106586496 -62457 -144889 -151275 -325846
832374203124801280 -62797 -145018 -151305 -325804
832374203143016064 -63275 -145275 -151441 -325817
832374203161230848 -63602 -145495 -151539 -325845
832374203179445632 -63917 -145616 -151671 -325826
832374203197660416 -64097 -145765 -151740 -325836
832374203215875200 -64260 -145809 -151818 -325835
832374203234089984 -64441 -145936 -151882 -325858
832374203252304768 -64641 -145996 -151919 -325824
832374203270519552 -64777 -146042 -151953 -325798
832374203288734336 -64845 -146080 -151928 -325788
832374203306949120 -64757 -146019 -151923 -325838
832374203325163904 -64598 -145927 -151899 -325811
832374203343378816 -64371 -145842 -151834 -325794
832374203361593600 -64100 -145696 -151753 -325828
832374203379808384 -63739 -145512 -151614 -325812
832374203398023168 -63444 -145355 -151545 -325855
832374203416237952 -63155 -145250 -151416 -325819
832374203434452736 -63006 -145171 -151332 -325830
832374203452667520 -62858 -145063 -151323 -325802
832374203470882304 -62776 -145005 -151291 -325789
832374203489097088 -62646 -144923 -151274 -325784
832374203507311872 -62388 -144826 -151205 -325807
832374203525526656 -62221 -144716 -151121 -325806
832374203543741490 -62074 -144741 -151167 -325832
832374203561954816 -61948 -144600 -151036 -325821
832374203580168192 -61854 -144600 -151027 -325865
832374203598381440 -61790 -144510 -151024 -325846
832374203616594816 -61710 -144516 -150943 -325818
832374203634808192 -61766 -144509 -150987 -325838
832374203653021568 -61843 -144552 -151013 -325772
832374203671234816 -61914 -144551 -151009 -325760
832374203689448192 -61926 -144607 -151057 -325866
832374203707661568 -61752 -144573 -151001 -325845
832374203725874944 -61695 -144513 -150994 -325812
832374203744088192 -61533 -144381 -150853 -325785
832374203762301568 -61350 -144290 -150825 -325824
832374203780514944 -61194 -144236 -150795 -325783
832374203798728320 -60895 -144063 -150709 -325752
832374203816941568 -60756 -143987 -150618 -325850
832374203835154944 -60474 -143863 -150522 -325780
832374203853368320 -60380 -143782 -150501 -325802
832374203871581696 -60237 -143688 -150434 -325787
832374203889794944 -59962 -143543 -150395 -325815
832374203908008320 -59523 -143408 -150256 -325780
832374203926221696 -59343 -143283 -150207 -325818
832374203944435072 -59308 -143287 -150225 -325804
832374203962648320 -59369 -143250 -150223 -325808
832374203980861696 -59531 -143402 -150296 -325790
832374203999075072 -59796 -143509 -150354 -325807
832374204017288448 -60133 -143708 -150485 -325862
832374204035501696 -60578 -143883 -150653 -325796
832374204053715072 -61117 -144132 -150772 -325798
832374204071928448 -61733 -144466 -150931 -325802
832374204090141824 -62124 -144681 -151048 -325814
832374204108355072 -62511 -144836 -151202 -325819
832374204126568448 -62939 -145063 -151362 -325778
832374204144781824 -63236 -145282 -151422 -325729
832374204162995200 -63603 -145486 -151581 -325814
832374204181208448 -63843 -145597 -151598 -325803
832374204199421824 -64090 -145651 -151672 -325768
832374204217635200 -64325 -145772 -151812 -325792
832374204235848530 -64618 -145978 -151914 -325870
832374204254062080 -64797 -146017 -151972 -325846
832374204272275584 -64906 -146070 -152005 -325845
832374204290489088 -64792 -146086 -151951 -325850
832374204308702592 -64657 -146019 -151906 -325850
832374204326916224 -64496 -145866 -151837 -325863
832374204345129728 -64299 -145804 -151777 -325841
832374204363343232 -63949 -145643 -151641 -325802
832374204381556736 -63676 -145537 -151589 -325898
832374204399770240 -63407 -145343 -151497 -325879
832374204417983744 -63242 -145280 -151503 -325879
832374204436197376 -63102 -145239 -151460 -325855
832374204454410880 -62960 -145190 -151413 -325802
832374204472624384 -62808 -145089 -151358 -325848
832374204490837888 -62564 -144904 -151216 -325867
832374204509051392 -62310 -144782 -151167 -325807
832374204527264896 -62151 -144752 -151110 -325813
832374204545478400 -62010 -144679 -151059 -325834
832374204563692032 -61967 -144634 -151091 -325839
832374204581905536 -61834 -144534 -150990 -325815
832374204600119040 -61807 -144542 -150955 -325823
832374204618332544 -61822 -144531 -150972 -325835
832374204636546048 -61930 -144547 -151044 -325798
832374204654759552 -62003 -144613 -151076 -325788
832374204672973184 -61992 -144539 -151041 -325806
832374204691186688 -61896 -144556 -151036 -325780
832374204709400192 -61803 -144534 -151007 -325785
832374204727613696 -61622 -144513 -150987 -325869
832374204745827200 -61451 -144354 -150911 -325824
832374204764040704 -61279 -144291 -150853 -325808
832374204782254336 -61052 -144141 -150754 -325830
832374204800467840 -60855 -144014 -150664 -325842
832374204818681344 -60737 -143920 -150701 -325829
832374204836894848 -60595 -143912 -150654 -325839
832374204855108352 -60510 -143865 -150627 -325850
832374204873321856 -60238 -143775 -150488 -325840
832374204891535360 -59928 -143580 -150381 -325800
832374204909748992 -59566 -143433 -150223 -325813
832374204927962496 -59337 -143220 -150182 -325801
832374204946176000 -59273 -143236 -150223 -325859
832374204964389488 -59272 -143228 -150148 -325833
832374204982603648 -59514 -143330 -150239 -325815
832374205000817792 -59920 -143512 -150394 -325840
832374205019031808 -60212 -143712 -150472 -325854
832374205037245952 -60651 -143906 -150630 -325788
