TIMESTAMP PPG0 PPG1 PPG2 AMBIENT
830877241882209664 519973 437900 441242 183132
830877241900391424 520070 438006 441343 183109
830877241918573312 520130 438048 441456 183089
830877241936755072 520259 438091 441536 183092
830877241954936960 520357 438127 441649 183032
830877241973118720 520505 438203 441746 183030
830877241991300608 520707 438277 441876 183093
830877242009482368 520785 438292 441945 183065
830877242027664256 520889 438392 442110 183049
830877242045846016 521033 438503 442267 183042
830877242064027904 521166 438600 442408 183081
830877242082209664 521384 438690 442588 183024
830877242100391424 521469 438819 442741 183010
830877242118573312 521714 438821 442904 183074
830877242136755072 521816 438886 442964 183056
830877242154936960 521715 438835 442882 183136
830877242173118720 521325 438688 442568 183142
830877242191300608 520823 438355 442145 183162
830877242209482368 520143 438051 441653 183071
830877242227664256 519651 437735 441224 183103
830877242245846016 519093 437368 440783 183082
830877242264027904 518657 437115 440430 183075
830877242282209664 518349 436815 440220 183123
830877242300391424 518075 436665 439984 183123
830877242318573312 517810 436464 439824 183100
830877242336755072 517681 436342 439813 183106
830877242354936960 517565 436237 439645 183092
830877242373118720 517491 436213 439713 183088
830877242391300608 517485 436078 439671 183112
830877242409482368 517440 436035 439657 183106
830877242427664256 517408 436005 439723 183145
830877242445846016 517407 435950 439705 183114
830877242464027904 517374 435936 439660 183070
830877242482209664 517410 435844 439695 183156
830877242500391424 517261 435815 439641 183102
830877242518573358 517187 435756 439660 183089
830877242536767872 517164 435622 439578 183067
830877242554962432 517190 435574 439578 183067
830877242573156992 517156 435546 439578 183075
830877242591351680 517206 435548 439598 183082
830877242609546240 517201 435517 439703 183132
830877242627740800 517280 435510 439800 183084
830877242645935360 517344 435518 439809 183119
830877242664130048 517478 435574 439899 183093
830877242682324608 517567 435548 440005 183092
830877242700519168 517601 435520 440106 183092
830877242718713728 517741 435628 440251 183091
830877242736908416 517851 435687 440318 183088
830877242755102976 518013 435757 440441 183083
830877242773297536 518110 435788 440491 183075
830877242791492096 518212 435827 440610 183083
830877242809686784 518390 435885 440807 183140
830877242827881344 518519 435954 440913 183116
830877242846075904 518674 436034 441055 183145
830877242864270464 518823 436088 441152 183081
830877242882465152 518931 436119 441257 183056
830877242900659712 519130 436197 441403 183074
830877242918854272 519185 436227 441527 183046
830877242937048832 519008 436160 441392 183023
830877242955243520 518648 435974 441105 183035
830877242973438080 518177 435722 440661 183084
830877242991632640 517546 435347 440242 183030
830877243009827200 516926 434886 439752 183027
830877243028021760 516322 434565 439318 183025
830877243046216448 515899 434233 438961 183033
830877243064411008 515515 433935 438700 183065
830877243082605568 515163 433684 438477 183072
830877243100800128 514903 433419 438322 183019
830877243118994816 514749 433289 438194 183007
830877243137189376 514632 433136 438161 183005
830877243155383936 514547 433133 438099 182962
830877243173578496 514554 433077 438104 183013
830877243191773184 514556 432963 438167 183031
830877243209967806 514527 432887 438062 182987
830877243228163328 514490 432820 438088 183021
830877243246358912 514364 432690 438063 183012
830877243264554496 514294 432614 438016 183023
830877243282750080 514230 432581 437937 182984
830877243300945664 514093 432487 437940 183003
830877243319141248 514051 432374 437941 182971
830877243337336832 514085 432256 437920 183000
830877243355532416 514084 432270 437946 183007
830877243373727872 514071 432295 437971 183019
830877243391923456 514068 432236 438011 182993
830877243410119040 514094 432210 438040 182987
830877243428314624 514156 432221 438105 183038
830877243446510208 514288 432296 438159 183043
830877243464705792 514375 432301 438258 183017
830877243482901376 514487 432291 438356 183049
830877243501096960 514566 432331 438500 183065
830877243519292544 514636 432336 438575 182971
830877243537488128 514753 432357 438650 182992
830877243555683712 514836 432400 438811 182971
830877243573879296 514964 432385 438888 182966
830877243592074880 515110 432426 438935 182989
830877243610270464 515280 432537 439140 183019
830877243628465920 515404 432593 439321 183032
830877243646661504 515534 432683 439395 183052
830877243664857088 515666 432707 439564 183015
830877243683052672 515791 432760 439694 183073
830877243701248256 515916 432801 439762 183053
830877243719443840 516068 432920 439927 183054
830877243737639424 516228 432964 440021 183053
830877243755835008 516322 433022 440131 183033
830877243774030592 516103 432969 440050 183031
830877243792226176 515694 432710 439730 183006
830877243810421760 515131 432367 439287 183019
830877243828617344 514495 431958 438792 183004
830877243846812928 513875 431533 438343 182982
830877243865008512 513317 431145 437880 183026
830877243883203968 512821 430757 437505 183043
830877243901399552 512482 430454 437220 182980
830877243919595231 512177 430165 436974 182984
830877243937790848 511924 429989 436852 183015
830877243955986432 511820 429947 436796 182989
830877243974182016 511683 429785 436755 183010
830877243992377600 511632 429679 436739 182992
830877244010573184 511648 429650 436754 182987
830877244028768768 511551 429554 436675 182969
830877244046964352 511505 429520 436686 182983
830877244065160064 511451 429491 436716 182983
830877244083355648 511366 429329 436634 182976
830877244101551232 511303 429251 436578 182948
830877244119746816 511257 429194 436496 182984
830877244137942400 511122 429055 436461 182998
830877244156137984 510978 429017 436387 182966
830877244174333568 510949 428969 436452 182965
830877244192529152 510955 428851 436449 182962
830877244210724736 511011 428832 436441 182957
830877244228920320 511021 428820 436469 182980
830877244247115904 511036 428878 436564 182995
830877244265311488 511117 428820 436605 182951
830877244283507200 511183 428846 436715 182995
830877244301702784 511279 428912 436774 183057
830877244319898368 511366 428863 436898 183065
830877244338093952 511455 428876 436995 183051
830877244356289536 511551 428891 437085 182989
830877244374485120 511732 429021 437257 183006
830877244392680704 511809 429038 437328 183016
830877244410876288 511904 429049 437441 182957
830877244429071872 512022 429195 437561 182942
830877244447267456 512165 429243 437622 183027
830877244465463040 512305 429219 437732 183023
830877244483658624 512458 429329 437854 183002
830877244501854336 512581 429411 438031 182970
830877244520049920 512647 429474 438121 182931
830877244538245504 512816 429590 438234 182959
830877244556441088 512944 429661 438400 183032
830877244574636672 513123 429739 438486 183023
830877244592832256 513182 429829 438660 183068
830877244611027840 512890 429717 438435 182935
830877244629223424 512502 429385 438083 183025
830877244647419013 511844 429016 437623 182983
830877244665613568 511201 428543 437083 182968
830877244683808128 510558 428128 436595 183005
830877244702002816 509888 427732 436121 182990
830877244720197376 509438 427339 435799 183014
830877244738391936 509008 427034 435453 182984
830877244756586624 508667 426724 435207 183004
830877244774781184 508438 426515 435017 182982
830877244792975744 508274 426388 434924 182957
830877244811170432 508231 426289 434906 183044
830877244829364992 508133 426123 434827 182983
830877244847559552 508111 426144 434864 182967
830877244865754240 508059 426085 434846 182985
830877244883948800 507981 425944 434789 182924
830877244902143360 507953 425938 434784 182942
830877244920338048 507885 425816 434712 182954
830877244938532608 507788 425763 434663 182976
830877244956727168 507700 425735 434658 182921
830877244974921856 507606 425624 434518 182930
830877244993116416 507614 425552 434584 182980
830877245011310976 507544 425525 434565 182984
830877245029505664 507568 425546 434547 183016
830877245047700224 507439 425465 434485 182963
830877245065894784 507490 425393 434557 182967
830877245084089472 507519 425409 434576 182966
830877245102284032 507622 425467 434736 182978
830877245120478592 507695 425494 434767 182967
830877245138673280 507816 425473 434821 182928
830877245156867840 507920 425559 434882 183019
830877245175062400 508012 425633 434958 182932
830877245193257088 508189 425672 435108 182902
830877245211451648 508322 425750 435274 182944
830877245229646208 508455 425817 435406 182947
830877245247840896 508564 425892 435492 182945
830877245266035456 508779 425962 435577 182964
830877245284230016 508919 426075 435744 182958
830877245302424704 509081 426091 435881 182983
830877245320619264 509172 426180 435996 182956
830877245338813824 509313 426287 436125 182973
830877245357008512 509504 426346 436237 182971
830877245375203119 509632 426434 436344 182948
830877245393398400 509820 426551 436473 182939
830877245411593728 509929 426615 436580 182921
830877245429789184 510083 426666 436765 182965
830877245447984512 510254 426761 436916 182923
830877245466179840 510421 426887 437018 182982
830877245484375296 510435 426895 437043 182938
830877245502570624 510142 426786 436793 182903
830877245520765952 509640 426479 436385 182899
830877245538961280 508960 426020 435857 182927
830877245557156736 508280 425545 435267 182965
830877245575352064 507667 425125 434813 182952
830877245593547392 507036 424679 434309 182949
830877245611742848 506547 424318 433942 182937
830877245629938176 506198 424014 433656 182928
830877245648133504 505884 423753 433397 182889
830877245666328960 505705 423586 433203 182876
830877245684524288 505527 423432 433112 182938
830877245702719616 505348 423354 433039 182927
830877245720915072 505296 423301 432970 182928
830877245739110400 505256 423224 432937 182913
830877245757305728 505194 423181 432937 182893
830877245775501184 505194 423107 432930 182917
830877245793696512 505165 423060 432916 182969
830877245811891840 505056 422965 432821 182965
830877245830087168 505026 422991 432767 182931
830877245848282624 504970 422879 432745 182919
830877245866477952 504823 422819 432692 182855
830877245884673280 504770 422772 432561 182852
830877245902868736 504859 422731 432620 182946
830877245921064064 504795 422699 432660 182893
830877245939259392 504803 422653 432562 182864
830877245957454848 504892 422640 432607 182868
830877245975650176 504914 422608 432699 182931
830877245993845504 505013 422689 432819 182915
830877246012040960 505065 422772 432993 182934
830877246030236288 505129 422845 433019 182880
830877246048431728 505256 422850 433094 182875
830877246066625792 505376 422946 433214 182911
830877246084819840 505538 422985 433294 182889
830877246103013888 505688 423111 433439 182867
830877246121207936 505873 423174 433545 182920
830877246139401984 505983 423237 433713 182863
830877246157596032 506200 423334 433827 182885
830877246175790080 506363 423437 433944 182929
830877246193984128 506473 423532 434022 182975
830877246212178176 506659 423628 434193 182987
830877246230372224 506698 423686 434327 182933
830877246248566272 506884 423773 434453 182966
830877246266760320 507115 423903 434641 182933
830877246284954368 507272 423993 434729 182890
830877246303148416 507466 424112 434927 182941
830877246321342464 507588 424154 435002 182867
830877246339536512 507840 424318 435166 182964
830877246357730560 508040 424436 435293 182933
830877246375924608 508232 424482 435523 182958
830877246394118656 508314 424562 435575 182932
830877246412312704 508264 424594 435522 182941
830877246430506752 507954 424396 435237 182929
830877246448700800 507370 424108 434861 182963
830877246466894848 506705 423603 434215 182912
830877246485088896 506083 423218 433690 182967
830877246503282944 505418 422764 433238 182854
830877246521476992 504919 422394 432837 182864
830877246539671040 504450 422038 432424 182856
830877246557865088 504149 421843 432188 182915
830877246576059136 503927 421565 431988 182826
830877246594253184 503749 421453 431926 182901
830877246612447232 503663 421342 431810 182895
830877246630641280 503593 421308 431720 182888
830877246648835328 503600 421301 431758 182920
830877246667029376 503584 421288 431756 182897
830877246685223424 503624 421235 431725 182913
830877246703417472 503549 421218 431689 182901
830877246721611520 503510 421202 431683 182913
830877246739805568 503489 421239 431677 182913
830877246757999643 503417 421162 431608 182929
830877246776195584 503385 421030 431476 182925
830877246794391552 503327 420940 431452 182843
830877246812587392 503370 420952 431504 182924
830877246830783360 503334 420942 431512 182925
830877246848979328 503322 420919 431497 182846
830877246867175168 503418 420972 431600 182902
830877246885371136 503484 421002 431667 182883
830877246903567104 503515 421025 431730 182845
830877246921762944 503671 421065 431815 182888
830877246939958912 503789 421177 431889 182929
830877246958154880 503962 421297 432016 182885
830877246976350720 504079 421284 432107 182889
830877246994546688 504233 421450 432232 182942
830877247012742656 504389 421558 432377 182922
830877247030938624 504560 421607 432507 182948
830877247049134464 504745 421679 432655 182917
830877247067330432 504862 421775 432705 182904
830877247085526400 505094 421860 432855 182903
830877247103722240 505283 422059 433031 182890
830877247121918208 505416 422113 433085 182815
830877247140114176 505632 422250 433303 182881
830877247158310016 505764 422365 433429 182883
830877247176505984 505954 422450 433537 182902
830877247194701952 506138 422596 433678 182838
830877247212897792 506373 422748 433859 182870
830877247231093760 506508 422817 434008 182919
830877247249289728 506700 422851 434149 182901
830877247267485568 506845 422994 434293 182932
830877247285681536 507105 423170 434426 182900
830877247303877504 507298 423308 434555 182917
830877247322073344 507274 423329 434509 182852
830877247340269312 507016 423167 434353 182878
830877247358465280 506534 422879 433936 182890
830877247376661120 505911 422424 433314 182846
830877247394857088 505376 422049 432898 182924
830877247413053056 504768 421667 432411 182946
830877247431249024 504339 421320 432064 182867
830877247449444864 503941 421015 431682 182872
830877247467640802 503597 420795 431460 182839
830877247485835264 503487 420655 431281 182865
830877247504029696 503297 420495 431126 182819
830877247522224000 503207 420492 431042 182835
830877247540418432 503183 420479 431027 182841
830877247558612736 503275 420476 431109 182915
830877247576807168 503324 420517 431118 182868
830877247595001472 503306 420466 431108 182860
830877247613195904 503306 420505 431144 182862
830877247631390208 503311 420466 431146 182882
830877247649584640 503261 420391 431132 182829
830877247667778944 503218 420406 431106 182848
830877247685973376 503162 420301 430989 182893
830877247704167808 503164 420331 430972 182867
830877247722362112 503170 420345 430943 182903
830877247740556544 503201 420295 430922 182852
830877247758750848 503180 420302 430947 182835
830877247776945280 503158 420324 431004 182889
830877247795139584 503309 420434 431077 182895
830877247813334016 503391 420518 431157 182895
830877247831528320 503563 420573 431194 182896
830877247849722752 503637 420598 431288 182892
830877247867917056 503812 420672 431394 182892
830877247886111488 503929 420759 431512 182873
830877247904305920 504138 420844 431676 182907
830877247922500224 504285 421018 431846 182910
830877247940694656 504490 421056 431947 182944
830877247958888960 504657 421212 432098 182915
830877247977083392 504750 421290 432210 182865
830877247995277696 504927 421396 432363 182892
830877248013472128 505158 421535 432520 182914
830877248031666432 505286 421659 432589 182928
830877248049860864 505428 421831 432791 182933
830877248068055168 505661 421996 432957 182918
830877248086249600 505872 422113 433065 182935
830877248104444032 506081 422192 433185 182911
830877248122638336 506258 422298 433306 182880
830877248140832768 506420 422318 433447 182790
830877248159027072 506667 422560 433654 182835
830877248177221504 506644 422580 433718 182822
830877248195415756 506480 422491 433503 182894
830877248213612416 505971 422132 433002 182820
830877248231809024 505415 421748 432494 182903
830877248250005504 504692 421343 431957 182873
830877248268202112 504136 420902 431368 182916
830877248286398592 503557 420545 430894 182899
830877248304595200 503121 420205 430503 182862
830877248322791680 502712 419971 430173 182830
830877248340988288 502416 419739 429920 182855
830877248359184896 502213 419627 429777 182901
830877248377381376 502189 419516 429762 182906
830877248395577984 502059 419455 429619 182879
830877248413774464 502076 419439 429631 182885
830877248431971072 502029 419445 429612 182842
830877248450167552 502073 419401 429602 182885
830877248468364160 502039 419356 429668 182847
830877248486560768 502055 419379 429672 182839
830877248504757248 502024 419365 429573 182837
830877248522953856 501938 419259 429535 182815
830877248541150336 501961 419321 429468 182931
830877248559346944 501863 419211 429339 182824
830877248577543424 501799 419170 429320 182815
830877248595740032 501823 419203 429324 182877
830877248613936640 501929 419205 429409 182865
830877248632133120 501927 419256 429497 182882
830877248650329728 501975 419221 429461 182830
830877248668526208 502115 419348 429601 182895
830877248686722816 502201 419301 429621 182904
830877248704919296 502299 419353 429682 182860
830877248723115904 502364 419518 429783 182903
830877248741312512 502544 419588 429943 182845
830877248759508992 502652 419683 430085 182883
830877248777705600 502860 419792 430132 182898
830877248795902080 502997 419889 430285 182847
830877248814098688 503209 419961 430374 182856
830877248832295168 503385 420044 430500 182879
830877248850491776 503611 420270 430683 182902
830877248868688384 503734 420321 430831 182882
830877248886884864 503879 420447 430979 182846
830877248905081327 504092 420586 431046 182911
830877248923278080 504307 420673 431131 182886
830877248941474816 504436 420833 431298 182870
830877248959671424 504640 420950 431493 182881
830877248977868160 504822 421094 431605 182945
830877248996064768 505019 421193 431730 182866
830877249014261504 505184 421313 431852 182832
830877249032458112 505436 421501 432037 182907
830877249050654848 505617 421608 432184 182849
830877249068851584 505587 421558 432052 182887
830877249087048192 505237 421401 431798 182912
830877249105244928 504668 421087 431250 182914
830877249123441536 504065 420638 430620 182892
830877249141638272 503339 420303 430068 182886
830877249159834880 502786 419863 429482 182924
830877249178031616 502226 419566 429020 182912
830877249196228352 501806 419248 428676 182876
830877249214424960 501451 419046 428354 182888
830877249232621696 501196 418785 428189 182879
830877249250818304 500989 418707 428014 182854
830877249269015040 500814 418546 427938 182894
830877249287211648 500796 418519 427881 182841
830877249305408384 500780 418487 427819 182887
830877249323605120 500740 418469 427764 182878
830877249341801728 500705 418455 427769 182865
830877249359998464 500674 418403 427690 182900
830877249378195072 500622 418379 427618 182864
830877249396391808 500571 418385 427587 182853
830877249414588416 500529 418339 427546 182867
830877249432785152 500462 418290 427488 182875
830877249450981888 500432 418284 427480 182881
830877249469178496 500391 418277 427462 182883
830877249487375232 500437 418294 427480 182873
830877249505571810 500501 418270 427490 182863
830877249523768192 500518 418280 427478 182858
830877249541964544 500605 418316 427520 182872
830877249560160896 500649 418373 427569 182842
830877249578357248 500789 418482 427699 182842
830877249596553600 500911 418522 427828 182849
830877249614749952 501044 418634 427976 182856
830877249632946304 501208 418730 428057 182867
830877249651142656 501385 418841 428172 182889
830877249669339008 501554 418930 428276 182844
830877249687535360 501749 419063 428466 182896
830877249705731712 501856 419154 428615 182822
830877249723928064 502042 419212 428783 182886
830877249742124416 502302 419400 428893 182817
830877249760320896 502487 419485 429016 182843
830877249778517248 502652 419624 429160 182842
830877249796713600 502854 419738 429214 182893
830877249814909952 503068 419913 429360 182881
830877249833106304 503216 420034 429546 182844
830877249851302656 503423 420202 429697 182900
830877249869499008 503552 420256 429799 182868
830877249887695360 503810 420456 429987 182873
830877249905891712 503950 420536 430084 182880
830877249924088064 504204 420750 430301 182886
830877249942284416 504329 420763 430346 182928
830877249960480768 504103 420747 430122 182838
830877249978677120 503724 420474 429674 182879
830877249996873472 503109 420104 429111 182795
830877250015069824 502447 419621 428449 182774
830877250033266176 501888 419268 427931 182812
830877250051462528 501331 418919 427438 182868
830877250069658880 500886 418654 427059 182819
830877250087855232 500535 418479 426778 182922
830877250106051584 500281 418295 426616 182826
830877250124247936 500155 418228 426477 182846
830877250142444288 500069 418050 426316 182839
830877250160640640 500011 418032 426242 182842
830877250178836992 500012 418036 426285 182877
830877250197033386 500053 418066 426292 182832
830877250215228928 500106 418085 426300 182846
830877250233424512 500040 418112 426307 182850
830877250251620096 500062 418093 426295 182852
830877250269815680 500089 418108 426310 182872
830877250288011264 500028 418099 426261 182877
830877250306206848 500030 418131 426247 182905
830877250324402432 500035 418039 426173 182925
830877250342598016 499989 418038 426140 182851
830877250360793472 500013 418068 426212 182826
830877250378989056 500080 418050 426153 182848
830877250397184640 500150 418128 426244 182879
830877250415380224 500279 418178 426311 182907
830877250433575808 500405 418260 426370 182910
830877250451771392 500490 418302 426472 182884
830877250469966976 500697 418411 426643 182867
830877250488162560 500798 418529 426753 182902
830877250506358144 500909 418628 426845 182854
830877250524553728 501063 418769 426960 182842
830877250542749312 501300 418939 427142 182826
830877250560944896 501515 419079 427376 182873
830877250579140480 501679 419183 427464 182813
830877250597336064 501901 419274 427614 182834
830877250615531520 502059 419338 427733 182888
830877250633727104 502264 419526 427825 182865
830877250651922688 502516 419674 428043 182942
830877250670118272 502594 419761 428113 182845
830877250688313856 502823 419897 428242 182877
830877250706509440 503022 420044 428454 182914
830877250724705024 503199 420166 428599 182853
830877250742900608 503366 420303 428755 182918
830877250761096192 503565 420422 428826 182890
830877250779291776 503552 420524 428885 182902
830877250797487360 503284 420320 428526 182877
830877250815682944 502850 420068 428015 182876
830877250833878528 502260 419792 427468 182833
830877250852074112 501725 419393 426911 182788
830877250870269568 501259 419056 426392 182799
830877250888465152 500815 418769 425997 182851
830877250906660811 500462 418550 425751 182832
830877250924855808 500247 418393 425580 182901
830877250943050752 500080 418295 425349 182830
830877250961245696 500046 418191 425300 182797
830877250979440640 500003 418214 425246 182862
830877250997635584 500067 418213 425323 182864
830877251015830528 500053 418277 425406 182807
830877251034025472 500232 418368 425489 182870
830877251052220416 500314 418385 425559 182836
830877251070415360 500399 418506 425641 182871
830877251088610304 500355 418478 425591 182830
830877251106805248 500404 418485 425656 182850
830877251125000192 500338 418455 425647 182820
830877251143195136 500399 418498 425629 182880
830877251161390080 500405 418493 425539 182805
830877251179585024 500402 418476 425575 182792
830877251197779968 500400 418533 425622 182779
830877251215974912 500605 418637 425705 182808
830877251234169856 500665 418766 425770 182863
830877251252364800 500772 418794 425924 182855
830877251270559744 500923 418898 426047 182861
830877251288754688 501169 419000 426143 182853
830877251306949632 501299 419124 426298 182832
830877251325144576 501480 419305 426503 182803
830877251343339520 501713 419504 426640 182865
830877251361534464 501882 419577 426830 182843
830877251379729408 502147 419710 426964 182851
830877251397924352 502334 419832 427154 182875
830877251416119296 502516 419986 427290 182795
830877251434314240 502761 420093 427454 182859
830877251452509184 502990 420330 427612 182841
830877251470704128 503139 420428 427783 182847
830877251488899072 503427 420551 427938 182848
830877251507094016 503596 420740 428101 182830
830877251525289088 503821 420865 428243 182821
830877251543484032 503984 421021 428337 182809
830877251561678976 503881 420984 428213 182871
830877251579873920 503531 420877 427880 182853
830877251598068864 502942 420535 427229 182893
830877251616263808 502327 420129 426641 182845
830877251634458651 501715 419771 426043 182875
830877251652653440 501211 419427 425527 182847
830877251670848256 500722 419151 425181 182849
830877251689043072 500353 418929 424808 182831
830877251707237888 500211 418762 424636 182815
830877251725432704 499999 418685 424416 182792
830877251743627648 499807 418549 424252 182757
830877251761822464 499769 418539 424295 182805
830877251780017280 499754 418537 424281 182810
830877251798212096 499740 418499 424277 182820
830877251816406912 499826 418546 424319 182856
830877251834601728 499826 418584 424340 182888
830877251852796544 499823 418591 424336 182835
830877251870991360 499870 418616 424358 182843
830877251889186304 499823 418606 424362 182839
830877251907381120 499839 418710 424396 182864
830877251925575936 499909 418710 424417 182918
830877251943770752 499891 418726 424375 182863
830877251961965568 499979 418750 424423 182869
830877251980160384 500062 418762 424443 182836
830877251998355200 500072 418913 424505 182846
830877252016550016 500196 418996 424630 182845
830877252034744960 500302 419049 424696 182844
830877252052939776 500474 419170 424868 182834
830877252071134592 500624 419175 424955 182780
830877252089329408 500829 419376 425177 182829
830877252107524224 501076 419507 425310 182811
830877252125719040 501297 419693 425533 182864
830877252143913856 501421 419784 425658 182802
830877252162108672 501668 419960 425843 182844
830877252180303616 501873 420091 426065 182824
830877252198498432 502084 420252 426268 182838
830877252216693248 502259 420454 426446 182870
830877252234888064 502498 420565 426538 182900
830877252253082880 502726 420731 426703 182818
830877252271277696 502937 420906 426934 182787
830877252289472512 503127 421046 427068 182764
830877252307667328 503370 421322 427378 182838
830877252325862272 503587 421372 427461 182818
830877252344057088 503814 421557 427608 182800
830877252362251904 504089 421670 427811 182849
830877252380446720 504196 421854 427965 182830
830877252398641577 504109 421827 427823 182820
830877252416838016 503762 421646 427394 182767
830877252435034496 503267 421420 426870 182821
830877252453230976 502811 421113 426325 182850
830877252471427456 502215 420765 425780 182802
830877252489623936 501750 420413 425294 182797
830877252507820416 501433 420195 424981 182788
830877252526016896 501065 420075 424767 182818
830877252544213376 500872 420010 424574 182782
830877252562409856 500803 419957 424534 182810
830877252580606336 500703 419900 424458 182803
830877252598802816 500693 419870 424407 182842
830877252616999296 500690 419854 424362 182781
830877252635195776 500735 419877 424418 182796
830877252653392256 500803 419954 424456 182804
830877252671588736 500861 420022 424474 182852
830877252689785216 500949 420057 424590 182831
830877252707981696 501066 420168 424695 182873
830877252726178176 501066 420205 424723 182852
830877252744374656 501067 420199 424749 182812
830877252762571136 501190 420241 424828 182804
830877252780767616 501279 420356 424826 182795
830877252798964096 501242 420327 424836 182763
830877252817160576 501418 420394 424958 182778
830877252835357056 501558 420509 425062 182842
830877252853553536 501751 420662 425227 182828
830877252871750016 501853 420751 425335 182812
830877252889946496 502055 420866 425525 182794
830877252908142976 502278 421015 425692 182803
830877252926339456 502490 421172 425891 182836
830877252944535936 502628 421318 426105 182828
830877252962732416 502903 421474 426255 182836
830877252980928896 503190 421657 426506 182863
830877252999125376 503429 421841 426627 182873
830877253017321856 503620 422007 426827 182841
830877253035518336 503853 422212 427016 182810
830877253053714816 504102 422371 427238 182812
830877253071911384 504296 422486 427390 182797
830877253090107008 504584 422643 427614 182799
830877253108302592 504731 422793 427806 182811
830877253126498176 505089 423001 427988 182895
830877253144693632 505377 423196 428226 182863
830877253162889216 505579 423352 428429 182815
830877253181084800 505860 423569 428652 182849
830877253199280384 506131 423698 428831 182800
830877253217475968 506361 423791 428961 182797
830877253235671424 506619 424057 429148 182804
830877253253867008 506804 424244 429343 182831
830877253272062592 506882 424311 429382 182879
830877253290258176 506647 424228 429046 182825
830877253308453760 506285 424083 428658 182838
830877253326649216 505849 423801 428248 182818
830877253344844800 505432 423576 427782 182805
830877253363040384 505004 423322 427341 182781
830877253381235968 504760 423179 427003 182819
830877253399431552 504587 423039 426827 182814
830877253417627008 504431 422967 426707 182793
830877253435822592 504336 422908 426660 182801
830877253454018176 504284 422873 426625 182833
830877253472213760 504269 422935 426625 182815
830877253490409344 504483 423061 426778 182851
830877253508604800 504551 423134 426923 182807
830877253526800384 504653 423260 427013 182734
830877253544995968 504790 423300 427128 182768
830877253563191552 504859 423375 427163 182786
830877253581387136 504950 423446 427184 182799
830877253599582592 504996 423545 427250 182782
830877253617778176 505107 423619 427297 182798
830877253635973760 505204 423641 427350 182727
830877253654169344 505256 423698 427418 182837
830877253672364928 505383 423876 427526 182870
830877253690560384 505425 423892 427561 182839
830877253708755968 505592 424014 427588 182805
830877253726951552 505717 424110 427805 182814
830877253745147136 505939 424170 427916 182817
830877253763342720 506135 424316 428054 182783
830877253781538176 506391 424436 428271 182856
830877253799733760 506553 424601 428442 182830
830877253817929344 506732 424771 428617 182844
830877253836124828 506972 424917 428825 182822
830877253854320384 507183 425138 428973 182835
830877253872515968 507432 425240 429163 182863
830877253890711552 507698 425474 429465 182896
830877253908907008 507922 425612 429627 182868
830877253927102592 508150 425719 429785 182867
830877253945298176 508333 425862 429990 182903
830877253963493760 508585 426046 430192 182924
830877253981689344 508847 426238 430405 182961
830877253999884800 508969 426323 430542 182831
830877254018080384 509219 426547 430743 182864
830877254036275968 509496 426671 430954 182830
830877254054471552 509756 426894 431142 182845
830877254072667136 509996 427114 431352 182846
830877254090862592 510225 427307 431538 182872
830877254109058176 510254 427406 431547 182831
830877254127253760 510030 427238 431316 182824
830877254145449344 509722 427101 430921 182816
830877254163644928 509405 426895 430531 182816
830877254181840384 508994 426658 430085 182801
830877254200035968 508714 426471 429790 182791
830877254218231552 508414 426370 429562 182760
830877254236427136 508270 426371 429357 182782
830877254254622720 508151 426223 429187 182742
830877254272818176 508105 426304 429202 182757
830877254291013760 508135 426332 429271 182751
830877254309209344 508184 426449 429319 182800
830877254327404928 508317 426473 429421 182829
830877254345600512 508404 426560 429536 182798
830877254363795968 508600 426617 429624 182781
830877254381991552 508707 426796 429759 182811
830877254400187136 508849 426842 429814 182821
830877254418382720 508917 426925 429944 182849
830877254436578304 509070 427046 430063 182864
830877254454773760 509134 427071 430149 182820
830877254472969344 509223 427179 430147 182781
830877254491164928 509351 427305 430344 182821
830877254509360512 509424 427379 430425 182785
830877254527556096 509573 427526 430597 182836
830877254545751552 509709 427537 430612 182828
830877254563947136 509846 427683 430762 182827
830877254582142720 510078 427849 430915 182793
830877254600338284 510220 427964 431099 182803
830877254618532352 510486 428146 431350 182798
830877254636726400 510651 428285 431473 182794
830877254654920576 510922 428425 431686 182810
830877254673114624 511135 428675 431951 182800
830877254691308800 511354 428759 432109 182761
830877254709502848 511595 428925 432313 182836
830877254727697024 511875 429143 432608 182836
830877254745891072 512188 429293 432861 182809
830877254764085248 512409 429490 433046 182867
830877254782279296 512663 429654 433274 182819
830877254800473344 512871 429825 433422 182807
830877254818667520 513139 430055 433657 182850
830877254836861568 513388 430181 433901 182845
830877254855055744 513626 430338 434106 182814
830877254873249792 513862 430522 434344 182828
830877254891443968 514187 430735 434560 182870
830877254909638016 514434 430941 434796 182856
830877254927832192 514695 431210 435028 182890
830877254946026240 514898 431318 435174 182879
830877254964220288 515007 431394 435182 182812
830877254982414464 514818 431328 434989 182798
830877255000608512 514546 431256 434721 182864
830877255018802688 514129 431072 434298 182785
830877255036996736 513775 430897 434016 182798
830877255055190912 513503 430786 433646 182829
830877255073384960 513247 430615 433428 182815
830877255091579136 513007 430517 433236 182795
830877255109773184 512900 430444 433170 182867
830877255127967232 512814 430447 433093 182849
830877255146161408 512825 430455 433076 182819
830877255164355456 512809 430509 433151 182844
830877255182549632 512861 430615 433217 182868
830877255200743680 512932 430627 433255 182839
830877255218937856 513073 430732 433366 182836
830877255237131904 513181 430747 433476 182829
830877255255326080 513230 430905 433538 182861
830877255273520128 513319 430903 433624 182849
830877255291714176 513348 431006 433687 182802
830877255309908352 513464 431113 433836 182787
830877255328102400 513557 431197 433868 182795
830877255346296576 513608 431264 433904 182831
830877255364490692 513686 431370 434045 182819
830877255382686464 513873 431487 434197 182842
830877255400882176 513970 431479 434195 182786
830877255419077888 514207 431702 434380 182826
830877255437273600 514347 431710 434576 182846
830877255455469312 514513 431874 434691 182825
830877255473665024 514620 432034 434832 182828
830877255491860736 514813 432155 434974 182794
830877255510056448 515095 432318 435269 182863
830877255528252032 515310 432415 435449 182819
830877255546447744 515572 432592 435592 182812
830877255564643456 515679 432762 435806 182794
830877255582839168 515903 432973 436016 182901
830877255601034880 516159 433073 436199 182844
830877255619230592 516410 433286 436507 182824
830877255637426304 516627 433460 436648 182746
830877255655622016 516897 433548 436923 182791
830877255673817728 517084 433769 437080 182777
830877255692013440 517375 433918 437328 182849
830877255710209152 517594 434124 437523 182881
830877255728404864 517872 434295 437673 182807
830877255746600576 518109 434472 437921 182849
830877255764796288 518347 434616 438187 182835
830877255782992000 518600 434831 438447 182862
830877255801187584 518819 434921 438639 182848
830877255819383296 519087 435117 438847 182868
830877255837579008 519336 435295 439080 182867
830877255855774720 519465 435408 439178 182827
830877255873970432 519385 435491 439056 182867
830877255892166144 519059 435270 438730 182851
830877255910361856 518731 435198 438417 182825
830877255928557568 518419 435032 438100 182817
830877255946753280 518024 434902 437745 182830
830877255964948992 517752 434771 437544 182858
830877255983144704 517528 434706 437363 182829
830877256001340416 517393 434697 437308 182862
830877256019536128 517326 434704 437195 182865
830877256037731840 517379 434690 437272 182825
830877256055927552 517319 434719 437258 182847
830877256074123136 517394 434740 437238 182841
830877256092318848 517479 434818 437422 182862
830877256110514560 517559 434877 437455 182858
830877256128710240 517603 434981 437642 182859
830877256146906624 517687 435066 437717 182821
830877256165102976 517769 435163 437784 182851
830877256183299328 517784 435141 437810 182825
830877256201495680 517823 435209 437939 182835
830877256219692032 517898 435288 437974 182867
830877256237888384 517994 435400 438063 182890
830877256256084736 518066 435420 438167 182829
830877256274281088 518137 435530 438278 182790
830877256292477440 518219 435584 438306 182799
830877256310673792 518341 435713 438456 182810
830877256328870144 518480 435815 438570 182827
830877256347066496 518585 435935 438803 182810
830877256365262976 518738 436000 438901 182810
830877256383459328 518978 436148 439094 182845
830877256401655680 519192 436260 439219 182862
830877256419852032 519407 436362 439430 182877
830877256438048384 519614 436548 439579 182860
830877256456244736 519803 436683 439798 182834
830877256474441088 519932 436851 439940 182859
830877256492637440 520106 436937 440110 182831
830877256510833792 520311 437146 440335 182864
830877256529030144 520577 437287 440571 182846
830877256547226496 520792 437373 440717 182829
830877256565422848 521041 437601 440968 182881
830877256583619200 521273 437741 441123 182871
830877256601815552 521478 437916 441359 182863
830877256620011904 521744 438015 441523 182852
830877256638208256 521927 438189 441689 182848
830877256656404608 522130 438306 441907 182827
830877256674600960 522406 438483 442154 182901
830877256692797312 522613 438620 442286 182830
830877256710993664 522874 438859 442502 182899
830877256729190016 523040 438974 442703 182962
830877256747386368 522987 438978 442667 182881
830877256765582720 522821 438913 442451 182881
830877256783779072 522511 438803 442163 182903
830877256801975552 522035 438636 441834 182831
830877256820171904 521680 438497 441547 182859
830877256838368256 521330 438353 441224 182837
830877256856564608 521024 438207 441170 182818
830877256874760960 520904 438151 440982 182839
830877256892957254 520717 438097 440846 182861
830877256911153408 520642 438108 440880 182834
830877256929349504 520619 438148 440929 182863
830877256947545728 520625 438202 440954 182837
830877256965741824 520657 438201 441040 182819
830877256983937920 520737 438256 441133 182824
830877257002134016 520789 438285 441206 182832
830877257020330240 520813 438309 441255 182812
830877257038526336 520850 438342 441228 182805
830877257056722432 520858 438415 441387 182850
830877257074918528 520860 438490 441442 182851
830877257093114752 520870 438524 441446 182808
830877257111310848 520873 438541 441466 182886
830877257129506944 520851 438543 441469 182864
830877257147703040 520908 438571 441456 182816
830877257165899264 520905 438606 441531 182889
830877257184095360 520987 438664 441675 182853
830877257202291456 521130 438735 441796 182916
830877257220487552 521164 438777 441852 182856
830877257238683776 521281 438903 441937 182834
830877257256879872 521427 439040 442097 182858
830877257275075968 521491 439141 442221 182852
830877257293272064 521696 439154 442374 182867
830877257311468288 521795 439285 442500 182860
830877257329664384 521960 439374 442689 182871
830877257347860480 522181 439450 442808 182906
830877257366056576 522332 439621 443003 182850
830877257384252800 522477 439745 443191 182817
830877257402448896 522645 439851 443340 182835
830877257420644992 522821 439992 443497 182815
830877257438841088 523031 440140 443753 182870
830877257457037312 523199 440190 443796 182870
830877257475233408 523410 440375 444012 182887
830877257493429504 523540 440434 444134 182867
830877257511625600 523675 440574 444308 182877
830877257529821824 523879 440709 444503 182883
830877257548017920 524074 440820 444631 182868
830877257566214016 523993 440832 444541 182864
830877257584410112 523776 440732 444368 182885
830877257602606336 523291 440522 443976 182836
830877257620802398 522792 440339 443556 182869
830877257638997760 522275 440108 443188 182841
830877257657193088 521910 439927 442939 182833
830877257675388416 521495 439766 442680 182818
830877257693583744 521186 439642 442493 182884
830877257711779072 520905 439549 442335 182833
830877257729974400 520794 439444 442285 182841
830877257748169600 520665 439433 442284 182871
830877257766364928 520570 439399 442247 182854
830877257784560256 520497 439366 442201 182882
830877257802755584 520491 439404 442280 182815
830877257820950912 520463 439394 442292 182817
830877257839146240 520529 439427 442367 182868
830877257857341568 520414 439345 442353 182895
830877257875536896 520441 439366 442392 182927
830877257893732224 520385 439332 442415 182893
830877257911927552 520369 439359 442449 182938
830877257930122752 520253 439353 442368 182853
830877257948318080 520258 439344 442410 182856
830877257966513408 520257 439394 442403 182896
830877257984708736 520250 439429 442466 182878
830877258002904064 520244 439368 442457 182778
830877258021099392 520297 439414 442576 182814
830877258039294720 520347 439428 442646 182851
830877258057490048 520421 439483 442691 182917
830877258075685376 520500 439625 442806 182824
830877258093880704 520615 439742 442994 182879
830877258112075904 520775 439765 443007 182855
830877258130271232 520839 439812 443143 182853
830877258148466560 521039 439928 443330 182869
830877258166661888 521147 440014 443409 182865
830877258184857216 521310 440095 443569 182836
830877258203052544 521464 440190 443714 182849
830877258221247872 521661 440302 443917 182924
830877258239443200 521758 440381 444029 182848
830877258257638528 521927 440454 444139 182939
830877258275833856 521990 440578 444341 182922
830877258294029056 522241 440670 444458 182859
830877258312224384 522354 440787 444599 182883
830877258330419712 522494 440906 444776 182884
830877258348615040 522619 440941 444894 182830
830877258366810329 522765 441068 445028 182872
830877258385005184 522710 441067 444914 182856
830877258403200000 522344 440941 444628 182888
830877258421394944 521784 440707 444253 182803
830877258439589760 521181 440411 443803 182797
830877258457784704 520612 440122 443378 182863
830877258475979520 519983 439822 442899 182831
830877258494174464 519549 439616 442620 182862
830877258512369280 519155 439346 442298 182761
830877258530564096 518865 439242 442101 182778
830877258548759040 518550 439070 441963 182782
830877258566953856 518387 438991 441922 182831
830877258585148800 518193 438878 441757 182855
830877258603343616 518129 438836 441691 182835
830877258621538560 517972 438805 441725 182807
830877258639733376 517924 438796 441697 182882
830877258657928192 517820 438728 441682 182822
830877258676123136 517754 438638 441586 182793
830877258694317952 517711 438560 441595 182770
830877258712512896 517645 438616 441574 182832
830877258730707712 517579 438530 441493 182851
830877258748902656 517488 438476 441454 182799
830877258767097472 517420 438477 441442 182780
830877258785292288 517399 438439 441425 182827
830877258803487232 517363 438413 441461 182830
830877258821682048 517378 438427 441481 182839
830877258839876992 517356 438344 441465 182858
830877258858071808 517407 438433 441564 182870
830877258876266752 517438 438429 441670 182818
830877258894461568 517517 438432 441676 182849
830877258912656384 517547 438466 441765 182850
830877258930851328 517723 438578 441927 182896
830877258949046144 517798 438610 441952 182845
830877258967241088 517919 438704 442062 182809
830877258985435904 518072 438732 442147 182777
830877259003630848 518229 438806 442296 182802
830877259021825664 518342 438958 442430 182807
830877259040020480 518536 439036 442550 182855
830877259058215424 518583 439063 442675 182821
830877259076410288 518702 439133 442816 182821
830877259094605312 518858 439237 442978 182872
830877259112800384 519009 439331 443046 182822
830877259130995456 519098 439387 443181 182841
830877259149190528 519339 439493 443291 182839
830877259167385600 519504 439587 443461 182855
830877259185580672 519574 439627 443604 182825
830877259203775744 519592 439679 443564 182881
830877259221970816 519295 439601 443342 182922
830877259240165888 518879 439340 442973 182881
830877259258360960 518247 439057 442453 182890
830877259276556032 517597 438684 442007 182848
830877259294751104 517087 438421 441577 182850
830877259312946048 516598 438100 441150 182842
830877259331141120 516182 437889 440896 182869
830877259349336192 515861 437752 440659 182855
830877259367531264 515632 437504 440456 182898
830877259385726336 515551 437389 440383 182882
830877259403921408 515382 437334 440368 182846
830877259422116480 515214 437232 440222 182784
830877259440311552 515160 437228 440288 182838
830877259458506624 515158 437137 440265 182858
830877259476701696 515126 437103 440284 182847
830877259494896768 515090 437066 440268 182901
830877259513091840 515063 437088 440254 182833
830877259531286912 515004 436979 440258 182855
830877259549481984 514971 436989 440207 182864
830877259567677056 514888 436978 440150 182809
830877259585872128 514922 436958 440172 182811
830877259604067200 514868 436907 440084 182846
830877259622262272 514882 436797 440127 182816
830877259640457344 514852 436756 440115 182812
830877259658652416 514872 436808 440149 182829
830877259676847488 515039 436795 440214 182817
830877259695042560 515057 436881 440290 182781
830877259713237632 515130 436859 440373 182801
830877259731432576 515280 436951 440517 182848
830877259749627648 515407 437049 440623 182879
830877259767822720 515556 437073 440688 182863
830877259786017877 515621 437115 440815 182871
830877259804212736 515794 437203 440927 182843
830877259822407552 515914 437268 441072 182887
830877259840602368 516095 437382 441179 182838
830877259858797184 516164 437483 441260 182838
830877259876992000 516357 437557 441409 182836
830877259895186944 516490 437633 441543 182825
830877259913381760 516681 437647 441652 182793
830877259931576576 516813 437661 441749 182770
830877259949771392 516999 437806 441878 182829
830877259967966208 517147 437886 442001 182864
830877259986161024 517287 437973 442078 182855
830877260004355840 517465 438042 442249 182883
830877260022550656 517486 438083 442229 182815
830877260040745600 517307 437960 442050 182878
830877260058940416 516833 437820 441676 182854
830877260077135232 516351 437486 441246 182834
830877260095330048 515737 437198 440763 182827
830877260113524864 515226 436804 440323 182853
830877260131719680 514734 436552 439996 182838
830877260149914496 514398 436364 439632 182801
830877260168109312 514156 436159 439433 182839
830877260186304256 513922 436017 439271 182778
830877260204499072 513797 435915 439203 182837
830877260222693888 513712 435858 439195 182837
830877260240888704 513728 435815 439143 182805
830877260259083520 513786 435772 439171 182761
830877260277278336 513906 435765 439237 182813
830877260295473152 513964 435747 439284 182872
830877260313667968 513924 435783 439334 182890
830877260331862912 513879 435763 439288 182872
830877260350057728 513883 435703 439220 182836
830877260368252544 513779 435616 439129 182801
830877260386447360 513892 435660 439172 182853
830877260404642176 513822 435625 439138 182842
830877260422836986 513756 435521 439117 182810
830877260441030912 513792 435575 439162 182805
830877260459224832 513877 435625 439197 182894
830877260477418752 513928 435603 439216 182811
830877260495612800 514014 435577 439282 182871
830877260513806720 514101 435635 439412 182826
830877260532000640 514258 435688 439467 182841
830877260550194560 514351 435691 439572 182837
830877260568388608 514597 435865 439705 182835
830877260586582528 514755 435874 439828 182860
830877260604776448 514880 435933 439909 182830
830877260622970368 515032 435988 440033 182850
830877260641164288 515191 436063 440166 182884
830877260659358336 515336 436195 440316 182843
830877260677552256 515513 436322 440410 182836
830877260695746176 515720 436399 440546 182898
830877260713940096 515838 436484 440624 182878
830877260732134016 516029 436585 440745 182867
830877260750328064 516206 436666 440916 182814
830877260768521984 516420 436685 441032 182867
830877260786715904 516624 436831 441217 182841
830877260804909824 516799 437038 441430 182858
830877260823103872 516871 437081 441397 182885
830877260841297792 516655 436948 441174 182860
830877260859491712 516131 436761 440763 182868
830877260877685632 515586 436409 440282 182844
830877260895879552 515065 436074 439734 182904
830877260914073600 514415 435687 439262 182860
830877260932267520 513952 435372 438748 182821
830877260950461440 513537 435056 438376 182839
830877260968655360 513222 434820 438102 182838
830877260986849408 512996 434671 437902 182832
830877261005043328 512806 434524 437812 182824
830877261023237248 512684 434424 437727 182860
830877261041431168 512550 434364 437616 182827
830877261059625088 512525 434260 437589 182822
830877261077819136 512622 434238 437559 182865
830877261096013056 512589 434190 437574 182839
830877261114207008 512625 434179 437500 182877
830877261132401152 512548 434095 437488 182843
830877261150595328 512604 434076 437508 182868
830877261168789504 512534 434066 437431 182882
830877261186983808 512557 433997 437385 182873
830877261205177984 512510 433951 437275 182814
830877261223372160 512605 433961 437349 182887
830877261241566336 512576 433929 437352 182827
830877261259760512 512649 434011 437369 182834
830877261277954688 512661 433938 437408 182825
830877261296148992 512757 433968 437459 182814
830877261314343168 512833 433929 437508 182821
830877261332537344 512882 434019 437588 182825
830877261350731520 513033 434028 437678 182846
830877261368925696 513182 434127 437832 182865
830877261387119872 513328 434190 437881 182836
830877261405314176 513566 434270 438069 182892
830877261423508352 513662 434299 438131 182921
830877261441702528 513838 434438 438304 182867
830877261459896704 514046 434482 438389 182871
830877261478090880 514157 434521 438576 182811
830877261496285184 514344 434612 438740 182886
830877261514479360 514532 434720 438800 182875
830877261532673536 514733 434796 438923 182842
830877261550867712 514827 434919 439025 182902
830877261569061888 515046 435055 439189 182866
830877261587256064 515217 435108 439278 182879
830877261605450368 515426 435155 439427 182880
830877261623644544 515578 435305 439556 182849
830877261641838720 515771 435428 439723 182921
830877261660032896 515864 435480 439809 182855
830877261678227072 515783 435450 439663 182835
830877261696421376 515403 435276 439314 182844
830877261714615552 514918 435034 438887 182871
830877261732809728 514341 434661 438344 182875
830877261751003904 513762 434264 437808 182871
830877261769198080 513295 433916 437346 182901
830877261787392256 512920 433660 436951 182907
830877261805586560 512593 433486 436655 182871
830877261823780736 512310 433272 436447 182826
830877261841974912 512108 433127 436289 182867
830877261860169159 512056 433039 436250 182918
830877261878363264 511955 432858 436068 182880
830877261896557312 511948 432764 436064 182848
830877261914751360 511970 432749 436120 182899
830877261932945408 512011 432826 436109 182894
830877261951139456 511934 432784 436124 182852
830877261969333504 511893 432814 436124 182867
830877261987527552 511945 432751 436034 182856
830877262005721600 511945 432679 436073 182855
830877262023915648 511935 432632 436011 182827
830877262042109696 511974 432610 436011 182817
830877262060303744 511983 432565 436005 182896
830877262078497792 511999 432521 435978 182797
830877262096691840 512107 432585 436034 182834
830877262114885888 512168 432597 436108 182899
830877262133079936 512230 432639 436140 182901
830877262151273984 512244 432670 436240 182844
830877262169468032 512424 432735 436316 182916
830877262187662080 512584 432766 436310 182862
830877262205856128 512714 432782 436392 182849
830877262224050176 512871 432854 436604 182875
830877262242244224 512969 432917 436697 182854
830877262260438272 513154 432974 436857 182834
830877262278632320 513381 433075 437013 182850
830877262296826368 513536 433209 437116 182866
830877262315020416 513776 433279 437281 182878
830877262333214464 513961 433399 437460 182922
830877262351408512 514116 433460 437603 182870
830877262369602560 514293 433582 437780 182905
830877262387796736 514466 433684 437845 182859
830877262405990784 514660 433799 437981 182795
830877262424184832 514880 433916 438151 182817
830877262442378880 515068 434020 438253 182810
830877262460572928 515250 434113 438448 182843
830877262478766976 515373 434200 438591 182838
830877262496961024 515567 434308 438728 182846
830877262515155072 515791 434426 438881 182871
830877262533349120 515992 434536 438984 182883
830877262551543168 516209 434663 439128 182888
830877262569737216 516129 434667 439049 182875
830877262587931264 515846 434560 438752 182925
830877262606125224 515268 434281 438177 182866
830877262624319232 514786 433987 437735 182865
830877262642513280 514240 433586 437241 182897
830877262660707200 513759 433253 436785 182896
830877262678901248 513373 433005 436446 182858
830877262697095296 513044 432793 436078 182888
830877262715289216 512752 432591 435870 182866
830877262733483264 512600 432445 435745 182784
830877262751677312 512567 432354 435632 182839
830877262769871232 512535 432285 435631 182839
830877262788065280 512532 432326 435645 182853
830877262806259328 512563 432312 435676 182848
830877262824453248 512612 432304 435739 182821
830877262842647296 512648 432296 435761 182886
830877262860841344 512614 432273 435767 182867
830877262879035264 512647 432239 435718 182800
830877262897229312 512649 432247 435699 182815
830877262915423360 512666 432247 435696 182866
830877262933617280 512708 432244 435675 182854
830877262951811328 512669 432239 435628 182859
830877262970005376 512726 432232 435684 182904
830877262988199424 512722 432194 435721 182913
830877263006393344 512769 432242 435736 182903
830877263024587392 512782 432253 435764 182901
830877263042781440 512925 432349 435869 182928
830877263060975360 513067 432356 435956 182805
830877263079169408 513143 432368 435989 182853
830877263097363456 513308 432376 436096 182829
830877263115557376 513475 432514 436244 182876
830877263133751424 513612 432606 436412 182830
830877263151945472 513803 432730 436541 182867
830877263170139392 513942 432810 436665 182852
830877263188333440 514147 432913 436844 182886
830877263206527488 514336 433009 436996 182878
830877263224721408 514460 433107 437100 182861
830877263242915456 514693 433223 437211 182882
830877263261109504 514846 433346 437376 182912
830877263279303465 515004 433410 437491 182884
830877263297498240 515205 433560 437634 182915
830877263315693056 515409 433650 437781 182941
830877263333887872 515524 433722 437921 182893
830877263352082688 515716 433843 438097 182865
830877263370277504 515891 433931 438161 182866
830877263388472448 516082 433970 438314 182858
830877263406667264 516220 434104 438487 182882
830877263424862080 516384 434196 438565 182853
830877263443056896 516434 434277 438591 182824
830877263461251712 516100 434096 438241 182808
830877263479446528 515721 433936 437864 182811
830877263497641344 515214 433603 437458 182828
830877263515836160 514729 433348 436941 182903
830877263534031104 514165 433015 436506 182834
830877263552225920 513831 432739 436168 182807
830877263570420736 513462 432520 435841 182854
830877263588615552 513240 432374 435657 182887
830877263606810368 513039 432259 435563 182841
830877263625005184 512932 432129 435454 182849
830877263643200000 512946 432152 435469 182808
830877263661394816 513015 432105 435490 182846
830877263679589760 513060 432050 435518 182834
830877263697784576 513096 432160 435598 182818
830877263715979392 513214 432188 435720 182860
830877263734174208 513255 432164 435750 182880
830877263752369024 513248 432168 435767 182824
830877263770563840 513274 432257 435768 182835
830877263788758656 513318 432269 435811 182827
830877263806953472 513318 432256 435772 182883
830877263825148416 513313 432256 435699 182843
830877263843343232 513318 432156 435721 182906
830877263861538048 513325 432163 435722 182841
830877263879732864 513395 432241 435802 182828
830877263897927680 513484 432234 435867 182903
830877263916122496 513551 432266 435926 182859
830877263934317312 513698 432341 435983 182825
830877263952512128 513863 432491 436153 182902
830877263970707067 513974 432513 436251 182899
830877263988900352 514114 432590 436375 182869
830877264007093632 514315 432734 436557 182851
830877264025286912 514465 432804 436665 182835
830877264043480192 514626 432914 436856 182782
830877264061673472 514779 433000 436960 182814
830877264079866624 515050 433125 437179 182895
830877264098059904 515155 433214 437255 182820
830877264116253184 515331 433235 437426 182855
830877264134446464 515515 433417 437571 182811
830877264152639744 515727 433553 437732 182834
830877264170833024 515885 433703 437850 182820
830877264189026304 516083 433769 438026 182873
830877264207219584 516251 433894 438207 182858
830877264225412864 516430 434002 438326 182918
830877264243606144 516667 434104 438531 182886
830877264261799296 516766 434228 438629 182895
830877264279992576 516828 434298 438681 182905
830877264298185856 516645 434201 438443 182877
830877264316379136 516171 433985 437997 182881
830877264334572416 515554 433624 437462 182888
830877264352765696 515050 433322 436983 182886
830877264370958976 514411 432965 436475 182846
830877264389152256 513928 432697 436098 182853
830877264407345536 513502 432344 435776 182841
830877264425538688 513193 432134 435515 182843
830877264443731968 512910 431951 435319 182805
830877264461925248 512786 431891 435180 182883
830877264480118528 512608 431760 435120 182865
830877264498311808 512525 431717 435001 182839
830877264516505088 512470 431655 434987 182844
830877264534698368 512506 431645 435027 182854
830877264552891648 512477 431635 435096 182829
830877264571084928 512521 431617 435072 182858
830877264589278208 512492 431617 435061 182884
830877264607471360 512507 431647 435094 182830
830877264625664640 512371 431515 435079 182805
830877264643857920 512295 431550 435087 182779
830877264662051200 512338 431524 434987 182863
830877264680244464 512369 431461 435049 182865
830877264698438272 512397 431474 435013 182875
830877264716632064 512423 431498 435035 182830
830877264734825856 512387 431497 435094 182824
830877264753019776 512424 431503 435106 182843
830877264771213568 512509 431601 435232 182838
830877264789407360 512543 431649 435330 182886
830877264807601152 512720 431690 435463 182896
830877264825794944 512814 431787 435515 182849
830877264843988736 512974 431803 435620 182833
830877264862182656 513122 431897 435776 182838
830877264880376448 513306 431965 435932 182821
830877264898570240 513492 432090 436100 182815
830877264916764032 513621 432198 436177 182850
830877264934957824 513818 432309 436347 182879
830877264953151616 513943 432454 436520 182884
830877264971345536 514101 432472 436660 182875
830877264989539328 514308 432535 436782 182843
830877265007733120 514476 432671 436872 182883
830877265025926912 514663 432759 437056 182873
830877265044120704 514849 432910 437220 182829
830877265062314496 514987 433017 437383 182901
830877265080508416 515161 433070 437536 182887
830877265098702208 515403 433245 437690 182866
830877265116896000 515560 433367 437854 182872
830877265135089792 515608 433486 437920 182859
830877265153283584 515456 433466 437816 182890
830877265171477504 515079 433175 437378 182826
830877265189671296 514520 432873 436898 182838
830877265207865088 513942 432553 436375 182832
830877265226058880 513335 432182 435921 182843
830877265244252672 512822 431823 435473 182827
830877265262446464 512319 431568 435080 182785
830877265280640384 511949 431381 434826 182845
830877265298834176 511715 431204 434625 182845
830877265317027968 511446 431001 434490 182849
830877265335221760 511370 430939 434423 182856
830877265353415552 511249 430886 434371 182832
830877265371609344 511219 430809 434381 182818
830877265389803221 511192 430743 434346 182807
830877265407996288 511195 430706 434364 182803
830877265426189312 511237 430675 434487 182829
830877265444382336 511209 430702 434430 182799
830877265462575360 511205 430721 434446 182830
830877265480768384 511163 430661 434497 182807
830877265498961408 511171 430701 434506 182798
830877265517154432 511138 430629 434473 182845
830877265535347456 511098 430642 434434 182842
830877265553540480 511092 430568 434431 182797
830877265571733632 511122 430681 434442 182888
830877265589926656 511175 430589 434486 182815
830877265608119680 511176 430671 434542 182829
830877265626312704 511283 430694 434650 182851
830877265644505728 511350 430776 434693 182894
830877265662698752 511484 430756 434834 182880
830877265680891776 511668 430882 434942 182861
830877265699084800 511814 430934 435052 182873
830877265717277824 511921 430926 435152 182828
830877265735470848 511996 431091 435306 182807
830877265753663872 512193 431178 435457 182816
830877265771856896 512424 431328 435636 182884
830877265790049920 512568 431409 435825 182804
830877265808242944 512781 431445 435958 182886
830877265826435968 512875 431578 436086 182885
830877265844628992 513108 431688 436233 182898
830877265862822144 513274 431786 436387 182865
830877265881015168 513446 431883 436549 182929
830877265899208192 513615 432010 436627 182836
830877265917401216 513794 432135 436828 182900
830877265935594240 513973 432234 436941 182843
830877265953787264 514148 432408 437101 182868
830877265971980288 514320 432443 437260 182852
830877265990173312 514311 432446 437196 182878
830877266008366336 514132 432400 437007 182902
830877266026559360 513635 432087 436600 182841
830877266044752384 513080 431849 436102 182910
830877266062945408 512503 431502 435639 182865
830877266081138432 511919 431135 435140 182844
830877266099331464 511484 430832 434797 182826
830877266117525248 511097 430585 434525 182834
830877266135719040 510760 430395 434314 182849
830877266153912832 510600 430292 434152 182876
830877266172106624 510461 430136 434040 182794
830877266190300416 510449 430112 434059 182805
830877266208494208 510370 430017 434030 182829
830877266226688000 510369 430028 434060 182799
830877266244881792 510367 430048 434078 182800
830877266263075584 510472 430078 434177 182813
830877266281269376 510500 430049 434168 182856
830877266299463168 510538 430091 434225 182872
830877266317656960 510484 430032 434266 182825
830877266335850752 510477 430013 434263 182798
830877266354044544 510443 429979 434157 182829
830877266372238336 510314 429952 434165 182849
830877266390432128 510334 429915 434182 182865
830877266408625920 510347 429884 434143 182866
830877266426819712 510313 429822 434123 182853
830877266445013504 510405 429902 434220 182886
830877266463207296 510429 429909 434337 182841
830877266481401088 510517 429910 434298 182837
830877266499594880 510600 429911 434387 182832
830877266517788672 510719 430026 434537 182886
830877266535982464 510876 430090 434622 182875
830877266554176256 510941 430158 434741 182827
830877266572370048 511101 430223 434880 182850
830877266590563712 511263 430339 434993 182828
830877266608757504 511491 430407 435117 182849
830877266626951296 511593 430499 435227 182880
830877266645145088 511790 430621 435408 182885
830877266663338880 511901 430587 435516 182897
830877266681532672 512053 430710 435640 182884
830877266699726464 512200 430819 435793 182880
830877266717920256 512363 430959 435874 182861
830877266736114048 512510 430993 436029 182872
830877266754307840 512705 431170 436157 182910
830877266772501632 512683 431113 436121 182864
830877266790695424 512422 430960 435917 182868
830877266808889216 511954 430700 435487 182851
830877266827083008 511385 430386 434937 182842
830877266845276835 510763 430015 434434 182822
830877266863471104 510122 429663 433995 182786
830877266881665408 509611 429364 433615 182815
830877266899859712 509227 429107 433294 182860
830877266918054144 508874 428872 433029 182826
830877266936248448 508711 428703 432815 182826
830877266954442752 508562 428570 432728 182807
830877266972637056 508423 428426 432693 182803
830877266990831488 508368 428394 432651 182768
830877267009025792 508377 428413 432707 182798
830877267027220096 508513 428446 432869 182890
830877267045414400 508526 428461 432873 182858
830877267063608832 508492 428406 432843 182770
830877267081803136 508469 428344 432876 182763
830877267099997440 508440 428323 432884 182799
830877267118191744 508506 428306 432901 182801
830877267136386176 508424 428324 432872 182805
830877267154580480 508425 428294 432831 182822
830877267172774784 508424 428288 432884 182829
830877267190969088 508409 428234 432831 182865
830877267209163520 508442 428275 432936 182884
830877267227357824 508534 428256 432989 182838
830877267245552128 508558 428328 433061 182783
830877267263746432 508625 428400 433131 182804
830877267281940864 508745 428466 433221 182815
830877267300135168 508900 428400 433330 182853
830877267318329472 509033 428517 433459 182825
830877267336523776 509177 428539 433563 182732
830877267354718208 509340 428742 433718 182813
830877267372912512 509507 428790 433859 182803
830877267391106816 509709 428936 433964 182818
830877267409301120 509881 428936 434181 182817
830877267427495552 510028 428992 434308 182856
830877267445689856 510249 429157 434454 182812
830877267463884160 510415 429202 434564 182798
830877267482078464 510563 429374 434806 182819
830877267500272896 510788 429528 434943 182803
830877267518467200 510984 429571 435053 182809
830877267536661504 510968 429656 435056 182780
830877267554855808 510731 429502 434856 182831
830877267573050261 510204 429205 434370 182886
830877267591243520 509572 428866 433828 182804
830877267609436800 508903 428474 433254 182820
830877267627630080 508272 428121 432724 182839
830877267645823488 507691 427716 432255 182771
830877267664016768 507216 427393 431931 182853
830877267682210048 506892 427184 431691 182880
830877267700403328 506619 426984 431489 182862
830877267718596608 506424 426846 431359 182865
830877267736790016 506231 426673 431230 182816
830877267754983296 506154 426580 431189 182831
830877267773176576 506083 426555 431146 182855
830877267791369856 506105 426546 431123 182804
830877267809563136 506138 426559 431205 182839
830877267827756544 506154 426475 431188 182898
830877267845949824 506097 426391 431194 182825
830877267864143104 506012 426370 431172 182791
830877267882336384 506013 426307 431176 182783
830877267900529664 506016 426294 431125 182805
830877267918723072 505898 426219 431081 182791
830877267936916352 505929 426224 431122 182779
830877267955109632 505886 426200 431114 182835
830877267973302912 505935 426208 431114 182811
830877267991496192 505939 426249 431156 182834
830877268009689600 505985 426256 431221 182809
830877268027882880 506179 426277 431317 182851
830877268046076160 506214 426304 431355 182843
830877268064269440 506322 426420 431497 182860
830877268082462720 506371 426417 431512 182776
830877268100656128 506572 426577 431708 182802
830877268118849408 506773 426651 431883 182799
830877268137042688 506992 426802 432044 182824
830877268155235968 507069 426814 432169 182805
830877268173429248 507274 426947 432301 182817
830877268191622656 507351 427020 432386 182794
830877268209815936 507563 427126 432649 182782
830877268228009216 507797 427215 432753 182816
830877268246202574 507961 427332 432886 182858
830877268264396672 508158 427452 433054 182798
830877268282590720 508294 427548 433153 182802
830877268300784896 508440 427657 433307 182814
830877268318978944 508452 427601 433202 182844
830877268337172992 507928 427337 432763 182811
830877268355367168 507319 427034 432322 182753
830877268373561216 506659 426602 431741 182752
830877268391755264 506057 426202 431231 182756
830877268409949440 505439 425857 430737 182803
830877268428143488 504927 425572 430257 182764
830877268446337536 504550 425325 429992 182770
830877268464531584 504270 425061 429806 182747
830877268482725760 504067 424869 429663 182769
830877268500919808 503915 424791 429544 182776
830877268519113856 503788 424747 429574 182814
830877268537308032 503768 424693 429566 182769
830877268555502080 503754 424706 429605 182802
830877268573696128 503777 424690 429592 182785
830877268591890304 503845 424680 429614 182774
830877268610084352 503809 424689 429659 182776
830877268628278400 503821 424647 429678 182765
830877268646472576 503815 424632 429675 182759
830877268664666624 503732 424601 429620 182759
830877268682860672 503712 424634 429638 182787
830877268701054848 503734 424590 429662 182838
830877268719248896 503708 424552 429699 182774
830877268737442944 503785 424559 429662 182800
830877268755636992 503832 424562 429741 182821
830877268773831168 503908 424613 429765 182834
830877268792025216 503982 424635 429847 182803
830877268810219264 504129 424692 429966 182813
830877268828413440 504182 424761 430100 182777
830877268846607488 504333 424871 430147 182813
830877268864801536 504454 424924 430313 182797
830877268882995712 504604 425052 430458 182830
830877268901189760 504828 425169 430613 182793
830877268919383808 504958 425182 430738 182780
830877268937577984 505124 425368 430892 182842
830877268955772015 505271 425404 431025 182736
830877268973966208 505513 425538 431211 182814
830877268992160384 505691 425650 431349 182810
830877269010354560 505861 425809 431482 182811
830877269028548736 506029 425872 431688 182792
830877269046742912 506240 425957 431822 182805
830877269064937088 506423 426042 431930 182779
830877269083131264 506442 426069 431931 182792
830877269101325440 506166 425959 431635 182780
830877269119519616 505654 425718 431221 182826
830877269137713792 505035 425356 430672 182775
830877269155907968 504420 425015 430183 182843
830877269174102144 503800 424662 429724 182774
830877269192296320 503396 424348 429267 182751
830877269210490496 503062 424123 429003 182798
830877269228684672 502747 423905 428819 182727
830877269246878848 502558 423799 428672 182766
830877269265073024 502416 423703 428670 182753
830877269283267200 502448 423656 428655 182824
830877269301461376 502471 423584 428653 182838
830877269319655552 502467 423721 428717 182844
830877269337849728 502554 423728 428846 182722
830877269356043904 502588 423765 428860 182758
830877269374238080 502618 423836 428909 182810
830877269392432256 502656 423800 428926 182753
830877269410626432 502556 423786 428866 182770
830877269428820608 502551 423779 428936 182847
830877269447014784 502426 423739 428816 182837
830877269465208960 502461 423724 428836 182821
830877269483403136 502467 423704 428850 182763
830877269501597312 502498 423699 428905 182809
830877269519791488 502584 423761 428958 182803
830877269537985664 502568 423824 428931 182760
830877269556179840 502713 423859 429044 182849
830877269574374016 502818 423914 429147 182780
830877269592568236 502936 423920 429294 182765
830877269610761344 503083 424047 429438 182786
830877269628954496 503248 424147 429523 182836
830877269647147648 503344 424281 429669 182815
830877269665340800 503525 424345 429772 182791
830877269683533952 503700 424451 429918 182817
830877269701727104 503868 424508 430062 182793
830877269719920256 504034 424604 430187 182808
830877269738113408 504226 424671 430330 182825
830877269756306560 504469 424903 430478 182880
830877269774499712 504560 425041 430640 182830
830877269792692864 504522 424939 430481 182775
830877269810886016 504036 424732 430188 182771
830877269829079168 503512 424433 429678 182758
830877269847272320 502870 424033 429126 182751
830877269865465472 502232 423685 428593 182737
830877269883658624 501658 423383 428208 182786
830877269901851776 501245 423090 427830 182762
830877269920044928 500841 422825 427578 182762
830877269938238080 500604 422706 427349 182777
830877269956431232 500403 422577 427304 182784
830877269974624384 500304 422450 427189 182764
830877269992817536 500243 422426 427170 182784
830877270011010688 500268 422421 427221 182795
830877270029203840 500326 422506 427330 182770
830877270047396992 500358 422460 427327 182750
830877270065590144 500428 422520 427405 182757
830877270083783296 500431 422507 427474 182819
830877270101976448 500395 422509 427474 182750
830877270120169600 500469 422488 427474 182718
830877270138362752 500457 422484 427437 182777
830877270156555904 500487 422515 427505 182779
830877270174749056 500513 422559 427542 182791
830877270192942208 500546 422563 427573 182725
830877270211135360 500568 422532 427544 182766
830877270229328512 500652 422583 427667 182754
830877270247521664 500745 422670 427720 182671
830877270265714816 500872 422789 427883 182713
830877270283907968 501053 422872 428030 182726
830877270302101120 501199 422942 428196 182743
830877270320294360 501345 423037 428347 182742
830877270338487040 501564 423126 428546 182730
830877270356679680 501794 423280 428680 182732
830877270374872448 501923 423365 428777 182750
830877270393065088 502111 423468 428970 182707
830877270411257856 502315 423590 429082 182774
830877270429450496 502505 423811 429277 182762
830877270447643264 502720 423931 429485 182723
830877270465835904 502971 424038 429596 182740
830877270484028544 503147 424194 429821 182717
830877270502221312 503210 424235 429865 182699
830877270520413952 503031 424228 429715 182733
830877270538606720 502505 423991 429268 182766
830877270556799360 501933 423641 428710 182802
830877270574992128 501263 423186 428108 182782
830877270593184768 500658 422892 427620 182778
830877270611377408 500102 422510 427104 182763
830877270629570176 499685 422204 426718 182744
830877270647762816 499260 421984 426486 182740
830877270665955584 499027 421874 426360 182780
830877270684148224 498849 421791 426250 182829
830877270702340992 498741 421734 426163 182780
830877270720533632 498713 421618 426143 182813
830877270738726400 498647 421542 426154 182734
830877270756919040 498675 421549 426178 182804
830877270775111680 498707 421617 426184 182794
830877270793304448 498775 421639 426304 182839
830877270811497088 498778 421590 426295 182779
830877270829689856 498775 421648 426318 182784
830877270847882496 498847 421699 426365 182797
830877270866075264 498873 421733 426399 182759
830877270884267904 498912 421727 426352 182777
830877270902460544 498900 421775 426494 182792
830877270920653312 498943 421799 426568 182820
830877270938845952 499086 421814 426583 182809
830877270957038720 499160 421832 426650 182768
830877270975231360 499225 421972 426811 182761
830877270993424128 499364 422075 426914 182731
830877271011616768 499578 422152 427024 182771
830877271029809408 499733 422229 427187 182828
830877271048002174 499953 422396 427447 182816
830877271066195456 500101 422480 427542 182786
830877271084388736 500349 422660 427722 182767
830877271102582016 500541 422734 427884 182744
830877271120775424 500771 422898 428086 182812
830877271138968704 501008 423042 428261 182804
830877271157161984 501210 423230 428480 182796
830877271175355264 501387 423343 428632 182809
830877271193548544 501600 423402 428751 182783
830877271211741952 501828 423630 428991 182821
830877271229935232 502134 423708 429249 182762
830877271248128512 502366 423861 429492 182786
830877271266321792 502552 424063 429576 182766
830877271284515072 502588 424118 429563 182775
830877271302708480 502249 423903 429283 182751
830877271320901760 501800 423661 428795 182734
830877271339095040 501145 423282 428241 182741
830877271357288320 500541 422980 427691 182724
830877271375481600 500058 422609 427245 182735
830877271393675008 499630 422357 426894 182723
830877271411868288 499231 422135 426571 182746
830877271430061568 499015 422029 426366 182759
830877271448254848 498876 421931 426334 182764
830877271466448128 498792 421890 426278 182727
830877271484641536 498775 421816 426280 182780
830877271502834816 498809 421788 426306 182757
830877271521028096 498823 421812 426410 182792
830877271539221376 498921 421947 426455 182760
830877271557414656 499018 421982 426471 182745
830877271575608064 499089 421998 426606 182763
830877271593801344 499084 422053 426623 182722
830877271611994624 499191 422021 426702 182730
830877271630187904 499261 421999 426679 182761
830877271648381184 499345 422093 426720 182781
830877271666574592 499339 422118 426810 182731
830877271684767872 499476 422164 426894 182748
830877271702961182 499536 422257 426925 182767
830877271721155200 499684 422321 427014 182732
830877271739349248 499847 422402 427147 182740
830877271757543296 500034 422510 427258 182785
830877271775737344 500158 422625 427434 182762
830877271793931392 500396 422741 427541 182754
830877271812125312 500621 422912 427797 182780
830877271830319360 500860 422989 427944 182757
830877271848513408 501054 423175 428200 182795
830877271866707456 501307 423331 428346 182762
830877271884901504 501569 423495 428568 182715
830877271903095552 501853 423641 428767 182793
830877271921289600 502047 423751 428935 182767
830877271939483648 502365 423957 429140 182764
830877271957677568 502628 424132 429395 182822
830877271975871616 502877 424317 429623 182816
830877271994065664 503104 424473 429834 182782
830877272012259712 503371 424627 429962 182759
830877272030453760 503608 424799 430155 182756
830877272048647808 503893 424925 430365 182735
830877272066841856 504135 425102 430604 182763
830877272085035904 504428 425289 430798 182786
830877272103229824 504672 425412 431028 182794
830877272121423872 504927 425568 431183 182798
830877272139617920 505007 425679 431259 182792
830877272157811968 504733 425560 430961 182676
830877272176006016 504303 425368 430517 182747
830877272194200064 503872 425132 430062 182763
830877272212394112 503397 424827 429638 182732
830877272230588160 502940 424508 429193 182793
830877272248782080 502527 424316 428874 182743
830877272266976128 502307 424123 428659 182779
830877272285170176 502142 424048 428445 182765
830877272303364224 501996 423994 428418 182768
830877272321558272 501980 423925 428420 182748
830877272339752320 502025 423936 428473 182665
830877272357946368 502189 424037 428565 182744
830877272376140416 502227 424041 428628 182732
830877272394334336 502379 424166 428849 182719
830877272412528384 502578 424285 428904 182836
830877272430722432 502631 424310 428977 182748
830877272448916480 502735 424397 429066 182785
830877272467110538 502801 424396 429110 182782
830877272485303168 502920 424483 429143 182770
830877272503495808 503031 424609 429237 182824
830877272521688320 503072 424681 429289 182776
830877272539880960 503231 424706 429349 182752
830877272558073472 503328 424691 429456 182757
830877272576266112 503503 424765 429518 182729
830877272594458624 503656 424898 429716 182812
830877272612651264 503787 424963 429827 182691
830877272630843776 504024 425137 430021 182782
830877272649036416 504179 425222 430188 182762
830877272667228928 504448 425405 430375 182758
830877272685421568 504761 425521 430523 182775
830877272703614080 504933 425761 430766 182801
830877272721806720 505214 425901 430948 182773
830877272739999232 505486 426024 431109 182800
830877272758191872 505769 426201 431381 182788
830877272776384384 505990 426357 431581 182785
830877272794577024 506196 426547 431747 182818
830877272812769536 506447 426694 431869 182753
830877272830962176 506693 426848 432126 182771
830877272849154688 506952 427074 432284 182769
830877272867347328 507152 427108 432501 182774
830877272885539968 507423 427313 432673 182845
830877272903732480 507684 427481 432851 182820
830877272921925120 507953 427600 432982 182752
830877272940117632 508228 427851 433166 182798
830877272958310272 508471 427965 433389 182832
830877272976502784 508510 428007 433345 182812
830877272994695424 508258 427915 433070 182791
830877273012887936 507933 427691 432678 182808
830877273031080576 507487 427438 432270 182800
830877273049273088 507162 427316 431957 182778
830877273067465728 506843 427111 431582 182767
830877273085658240 506622 426918 431391 182781
830877273103850880 506479 426887 431238 182764
830877273122043392 506400 426762 431218 182785
830877273140236032 506369 426761 431138 182747
830877273158428544 506447 426778 431215 182753
830877273176621184 506594 426931 431289 182828
830877273194813696 506666 426989 431416 182747
830877273213006336 506815 427035 431529 182753
830877273231198858 507075 427173 431696 182774
830877273249390464 507171 427257 431812 182777
830877273267582080 507274 427336 431861 182726
830877273285773696 507456 427434 432005 182740
830877273303965312 507582 427506 432044 182815
830877273322157056 507711 427614 432081 182855
830877273340348672 507762 427725 432247 182830
830877273358540288 507886 427703 432266 182752
830877273376731904 508012 427726 432374 182769
830877273394923520 508238 427938 432496 182829
830877273413115136 508390 428048 432589 182766
830877273431306752 508539 428209 432768 182790
830877273449498496 508748 428323 432937 182793
830877273467690112 509014 428424 433174 182780
830877273485881728 509227 428580 433382 182764
830877273504073344 509406 428716 433560 182756
830877273522264960 509753 428946 433758 182766
830877273540456576 509958 429058 433906 182794
830877273558648192 510225 429233 434160 182808
830877273576839936 510458 429398 434381 182792
830877273595031552 510714 429570 434625 182780
830877273613223168 511002 429767 434794 182794
830877273631414784 511343 429940 435062 182830
830877273649606400 511571 430103 435213 182785
830877273667798016 511910 430324 435459 182877
830877273685989632 512119 430458 435657 182799
830877273704181376 512390 430629 435854 182832
830877273722372992 512614 430806 436009 182782
830877273740564608 512905 431005 436273 182850
830877273758756224 513149 431131 436472 182827
830877273776947840 513193 431203 436391 182829
830877273795139456 512963 431145 436144 182836
830877273813331072 512561 430923 435772 182796
830877273831522816 512251 430733 435333 182773
830877273849714432 511863 430585 434913 182767
830877273867906048 511591 430342 434610 182771
830877273886097664 511387 430218 434421 182834
830877273904289280 511200 430111 434240 182783
830877273922480896 511197 430089 434161 182776
830877273940672512 511161 430124 434180 182825
830877273958864256 511210 430048 434160 182792
830877273977055872 511200 430107 434198 182775
830877273995247504 511289 430167 434320 182779
830877274013440000 511488 430259 434417 182834
830877274031632512 511534 430328 434576 182799
830877274049825024 511723 430473 434640 182805
830877274068017536 511829 430553 434777 182817
830877274086210048 511938 430640 434828 182785
830877274104402560 512065 430753 434964 182819
830877274122595072 512192 430774 434989 182785
830877274140787584 512214 430862 435049 182765
830877274158980096 512391 430950 435181 182791
830877274177172608 512541 431036 435248 182826
830877274195365120 512668 431060 435300 182804
830877274213557632 512811 431187 435474 182813
830877274231750016 513042 431302 435582 182801
830877274249942528 513237 431450 435733 182822
830877274268135040 513436 431547 435949 182787
830877274286327552 513659 431726 436103 182779
830877274304520064 513820 431891 436322 182803
830877274322712576 514080 431981 436472 182766
830877274340905088 514308 432112 436676 182786
830877274359097600 514645 432296 436861 182797
830877274377290112 514847 432454 437063 182833
830877274395482624 515113 432640 437309 182894
830877274413675136 515372 432804 437497 182833
830877274431867648 515577 432981 437645 182805
830877274450060160 515850 433144 437832 182802
830877274468252672 516132 433299 438085 182802
830877274486445184 516360 433495 438284 182825
830877274504637696 516671 433683 438510 182771
830877274522830208 516918 433828 438688 182770
830877274541022720 517178 433985 438873 182798
830877274559215232 517437 434179 439095 182843
830877274577407744 517657 434305 439224 182813
830877274595600256 517919 434520 439506 182901
830877274613792768 518149 434709 439652 182843
830877274631985280 518194 434772 439643 182827
830877274650177664 518004 434665 439397 182824
830877274668370176 517773 434488 439020 182822
830877274686562688 517435 434325 438690 182768
830877274704755200 517106 434166 438325 182784
830877274722947712 516891 433988 438101 182799
830877274741140224 516711 433835 437850 182733
830877274759332772 516585 433790 437680 182793
830877274777525632 516578 433787 437654 182825
830877274795718528 516524 433798 437663 182820
830877274813911424 516534 433805 437642 182790
830877274832104192 516704 433841 437687 182791
830877274850297088 516833 433936 437752 182830
830877274868489984 516935 433955 437907 182818
830877274886682880 517065 434058 438037 182799
830877274904875776 517173 434169 438127 182782
830877274923068544 517309 434245 438186 182813
830877274941261440 517399 434327 438227 182764
830877274959454336 517443 434377 438291 182795
830877274977647232 517549 434412 438359 182848
830877274995840128 517663 434485 438458 182791
830877275014032896 517783 434590 438546 182830
830877275032225792 517909 434687 438634 182872
830877275050418688 518017 434752 438679 182833
830877275068611584 518180 434820 438809 182832
830877275086804480 518269 434929 438884 182811
830877275104997248 518424 435030 439024 182826
830877275123190144 518683 435137 439174 182810
830877275141383040 518873 435271 439336 182782
830877275159575936 519066 435412 439484 182779
830877275177768704 519261 435560 439704 182817
830877275195961600 519495 435716 439905 182828
830877275214154496 519766 435917 440096 182809
830877275232347392 519964 436050 440263 182797
830877275250540288 520167 436141 440406 182846
830877275268733056 520358 436306 440589 182776
830877275286925952 520619 436444 440798 182810
830877275305118848 520907 436683 441042 182829
830877275323311744 521075 436791 441211 182775
830877275341504640 521318 436903 441385 182790
830877275359697408 521511 437113 441672 182833
830877275377890304 521718 437286 441803 182801
830877275396083200 522025 437426 442017 182864
830877275414276096 522219 437586 442158 182795
830877275432468992 522540 437733 442399 182846
830877275450661760 522820 437872 442618 182877
830877275468854656 522938 438011 442724 182889
830877275487047552 522957 438058 442697 182829
830877275505240448 522799 438005 442462 182836
830877275523433300 522471 437886 442012 182791
830877275541626880 522204 437694 441688 182813
830877275559820416 521980 437495 441385 182820
830877275578014080 521670 437402 441120 182821
830877275596207616 521476 437364 440934 182846
830877275614401280 521311 437237 440836 182817
830877275632594816 521341 437262 440702 182868
830877275650788480 521237 437218 440724 182834
830877275668982016 521298 437233 440691 182801
830877275687175680 521410 437269 440818 182801
830877275705369216 521486 437361 440921 182838
830877275723562880 521589 437357 440912 182813
830877275741756416 521673 437530 441038 182792
830877275759950080 521733 437559 441107 182769
830877275778143616 521844 437613 441175 182753
830877275796337280 521981 437673 441279 182821
830877275814530816 522050 437767 441328 182778
830877275832724480 522085 437811 441380 182741
830877275850918016 522139 437832 441442 182775
830877275869111552 522273 437894 441511 182800
830877275887305216 522431 437964 441567 182838
830877275905498752 522507 438042 441674 182836
830877275923692416 522637 438107 441746 182802
830877275941885952 522747 438244 441888 182805
830877275960079616 522867 438314 441998 182813
830877275978273152 523052 438366 442063 182841
830877275996466816 523226 438577 442227 182844
830877276014660352 523370 438620 442401 182855
830877276032854016 523556 438713 442552 182807
830877276051047552 523745 438862 442733 182860
830877276069241216 523919 438975 442911 182827
830877276087434752 524154 439108 443071 182860
830877276105628416 524294 439219 443235 182801
830877276123821952 524505 439361 443384 182820
830877276142015616 524707 439535 443564 182771
830877276160209152 524945 439675 443733 182753
830877276178402688 525116 439761 443852 182773
830877276196596352 525348 439909 444093 182773
830877276214789888 525581 440091 444215 182837
830877276232983552 525817 440291 444413 182870
830877276251177088 526009 440402 444643 182820
830877276269370752 526231 440454 444838 182844
830877276287564344 526371 440624 444998 182744
830877276305756800 526587 440758 445117 182833
830877276323949312 526715 440886 445172 182811
830877276342141824 526592 440874 445010 182829
830877276360334336 526303 440746 444787 182792
830877276378526848 526029 440617 444335 182861
830877276396719360 525725 440469 443995 182809
830877276414911872 525428 440224 443705 182872
830877276433104384 525118 440162 443508 182824
830877276451296896 524935 440050 443346 182793
830877276469489408 524816 439902 443188 182795
830877276487681920 524699 439873 443114 182820
830877276505874432 524709 439948 443050 182826
830877276524066816 524718 439905 443076 182876
830877276542259328 524765 439978 443094 182848
830877276560451840 524804 439990 443161 182784
830877276578644352 524884 440084 443287 182801
830877276596836864 524961 440149 443355 182751
830877276615029376 524993 440181 443417 182796
830877276633221888 525128 440261 443557 182868
830877276651414400 525109 440251 443512 182814
830877276669606912 525164 440287 443537 182809
830877276687799424 525153 440310 443565 182833
830877276705991936 525137 440345 443542 182796
830877276724184448 525191 440471 443629 182824
830877276742376960 525205 440439 443551 182753
830877276760569472 525249 440483 443640 182757
830877276778761984 525361 440573 443781 182810
830877276796954496 525439 440604 443815 182794
830877276815147008 525536 440667 443949 182800
830877276833339520 525599 440678 444022 182749
830877276851532032 525794 440869 444183 182820
830877276869724544 525901 440977 444267 182844
830877276887917056 526060 440990 444406 182796
830877276906109568 526232 441160 444623 182801
830877276924302080 526270 441191 444650 182799
830877276942494464 526485 441310 444865 182833
830877276960686976 526647 441458 445002 182792
830877276978879488 526810 441579 445079 182854
830877276997072000 526939 441679 445212 182805
830877277015264512 527117 441782 445443 182795
830877277033457024 527302 441841 445496 182810
830877277051649612 527418 441963 445622 182864
830877277069841408 527483 442078 445751 182832
830877277088033152 527674 442165 445945 182819
830877277106225024 527847 442201 445976 182802
830877277124416768 527728 442239 445873 182785
830877277142608512 527472 442160 445580 182844
830877277160800256 526988 441972 445192 182864
830877277178992128 526573 441772 444829 182815
830877277197183872 526207 441594 444396 182803
830877277215375616 525789 441429 444061 182873
830877277233567488 525393 441206 443799 182830
830877277251759232 525203 441173 443655 182829
830877277269950976 524972 440964 443435 182841
830877277288142720 524834 440931 443411 182773
830877277306334592 524758 440854 443384 182833
830877277324526336 524688 440947 443365 182846
830877277342718080 524626 440934 443398 182800
830877277360909824 524692 440922 443435 182785
830877277379101696 524661 441005 443459 182831
830877277397293440 524695 440985 443500 182809
830877277415485184 524696 440932 443483 182815
830877277433677056 524638 440954 443482 182787
830877277451868800 524633 440918 443467 182832
830877277470060544 524561 440964 443480 182809
830877277488252288 524486 440952 443465 182807
830877277506444160 524481 440964 443490 182824
830877277524635904 524464 440967 443445 182776
830877277542827648 524484 441011 443475 182824
830877277561019520 524473 440973 443514 182774
830877277579211264 524548 441001 443544 182815
830877277597403008 524577 441006 443650 182790
830877277615594752 524661 441107 443782 182808
830877277633786624 524700 441144 443840 182830
830877277651978368 524819 441221 443953 182816
830877277670170112 524933 441325 444049 182811
830877277688361856 525081 441451 444125 182829
830877277706553728 525162 441446 444237 182809
830877277724745472 525281 441516 444312 182836
830877277742937216 525378 441575 444484 182829
830877277761129088 525537 441689 444646 182832
830877277779320832 525652 441801 444799 182820
830877277797512576 525774 441884 444939 182803
830877277815704362 525932 441987 445026 182770
830877277833896960 526058 442094 445131 182798
830877277852089600 526205 442172 445289 182774
830877277870282112 526126 442215 445229 182839
830877277888474752 525819 442090 444993 182811
830877277906667392 525298 441831 444521 182776
830877277924860032 524777 441631 444030 182801
830877277943052544 524203 441366 443542 182829
830877277961245184 523648 441061 443065 182796
830877277979437824 523103 440793 442724 182790
830877277997630464 522677 440588 442415 182741
830877278015822976 522271 440421 442141 182787
830877278034015616 522042 440267 441921 182844
830877278052208256 521723 440163 441787 182810
830877278070400768 521524 439971 441643 182798
830877278088593408 521378 439864 441575 182794
830877278106786048 521334 439863 441520 182827
830877278124978688 521249 439866 441507 182819
830877278143171200 521209 439835 441448 182824
830877278161363840 521091 439742 441449 182819
830877278179556480 521055 439730 441434 182815
830877278197748992 520932 439662 441373 182841
830877278215941632 520770 439613 441285 182790
830877278234134272 520654 439527 441264 182780
830877278252326912 520626 439553 441255 182796
830877278270519424 520630 439553 441277 182786
830877278288712064 520514 439475 441202 182767
830877278306904704 520445 439490 441178 182765
830877278325097344 520376 439455 441258 182759
830877278343289856 520402 439472 441260 182779
830877278361482496 520413 439438 441312 182813
830877278379675136 520433 439504 441343 182792
830877278397867648 520559 439575 441463 182783
830877278416060288 520596 439562 441485 182816
830877278434252928 520662 439588 441619 182807
830877278452445568 520743 439646 441689 182762
830877278470638080 520916 439720 441822 182773
830877278488830735 521000 439777 441970 182769
830877278507022976 521136 439854 442015 182809
830877278525215232 521214 439907 442146 182782
830877278543407360 521223 439946 442208 182785
830877278561599616 521392 440022 442252 182795
830877278579791744 521525 440125 442407 182768
830877278597984000 521681 440209 442557 182785
830877278616176128 521780 440250 442672 182780
830877278634368384 521864 440315 442832 182814
830877278652560512 521823 440289 442744 182750
830877278670752768 521552 440200 442500 182746
830877278688944896 521048 440041 442065 182793
830877278707137152 520374 439671 441550 182757
830877278725329280 519753 439377 440994 182799
830877278743521536 519105 439046 440515 182725
830877278761713664 518560 438759 440051 182773
830877278779905920 518081 438523 439763 182792
830877278798098048 517713 438148 439486 182753
830877278816290304 517484 438041 439353 182758
830877278834482432 517281 437952 439192 182730
830877278852674688 517100 437831 439116 182787
830877278870866816 517012 437764 439040 182819
830877278889059072 516868 437721 439003 182795
830877278907251200 516793 437658 438974 182760
830877278925443456 516755 437621 438960 182773
830877278943635584 516661 437555 438944 182828
830877278961827840 516631 437480 438894 182833
830877278980019968 516579 437408 438964 182848
830877278998212224 516441 437280 438833 182761
830877279016404352 516400 437277 438876 182768
830877279034596608 516432 437248 438821 182802
830877279052788736 516402 437210 438821 182794
830877279070980992 516317 437232 438838 182782
830877279089173120 516233 437182 438789 182769
830877279107365376 516287 437202 438838 182762
830877279125557504 516312 437209 438941 182781
830877279143749760 516401 437193 439029 182777
830877279161941850 516504 437181 439075 182743
830877279180133248 516595 437272 439169 182763
830877279198324608 516625 437339 439209 182760
830877279216515968 516778 437339 439317 182780
830877279234707328 516862 437436 439465 182814
830877279252898688 516963 437502 439569 182790
830877279271090048 517073 437543 439636 182773
830877279289281408 517179 437623 439753 182790
830877279307472768 517366 437735 439973 182834
830877279325664128 517432 437775 439995 182801
830877279343855616 517584 437842 440106 182818
830877279362046976 517707 437874 440178 182826
830877279380238336 517800 437905 440316 182781
830877279398429696 518052 437992 440488 182799
830877279416621056 518146 438084 440539 182742
830877279434812416 518274 438252 440680 182812
830877279453003776 518414 438271 440854 182790
830877279471195136 518435 438303 440886 182790
830877279489386496 518341 438306 440741 182794
830877279507577856 517979 438174 440463 182783
830877279525769216 517435 437834 439988 182762
830877279543960576 516861 437503 439451 182767
830877279562151936 516203 437200 438993 182811
830877279580343296 515692 436887 438578 182795
830877279598534656 515282 436600 438193 182764
830877279616726016 514965 436351 437967 182771
830877279634917376 514628 436200 437763 182744
830877279653108864 514405 436038 437588 182748
830877279671300224 514320 435884 437489 182797
830877279689491584 514204 435839 437516 182796
830877279707682944 514187 435787 437527 182774
830877279725874304 514229 435785 437544 182859
830877279744065664 514215 435756 437503 182813
830877279762257024 514183 435745 437574 182777
830877279780448384 514140 435624 437514 182773
830877279798639744 514127 435623 437465 182820
830877279816831104 514087 435627 437460 182764
830877279835022445 514066 435493 437485 182811
830877279853215232 513985 435441 437395 182774
830877279871408000 513891 435364 437389 182782
830877279889600768 513910 435386 437342 182825
830877279907793664 513941 435357 437386 182829
830877279925986432 513977 435329 437391 182797
830877279944179200 514009 435362 437497 182792
830877279962371968 514068 435380 437544 182812
830877279980564864 514191 435411 437603 182818
830877279998757632 514215 435415 437719 182848
830877280016950400 514368 435448 437741 182856
830877280035143168 514479 435481 437862 182786
830877280053336064 514606 435534 438018 182761
830877280071528832 514697 435582 438124 182776
830877280089721600 514764 435666 438239 182723
830877280107914368 514948 435751 438400 182769
830877280126107136 515119 435842 438498 182798
830877280144300032 515196 435845 438591 182760
830877280162492800 515368 435910 438715 182833
830877280180685568 515478 436015 438767 182803
830877280198878336 515630 436039 438892 182847
830877280217071232 515772 436069 439016 182807
830877280235264000 515930 436202 439165 182808
830877280253456768 516080 436276 439266 182818
830877280271649536 516144 436383 439436 182769
830877280289842304 516043 436348 439287 182798
830877280308035200 515739 436200 439042 182782
830877280326227968 515236 435898 438575 182788
830877280344420736 514669 435567 438036 182790
830877280362613504 514110 435199 437560 182769
830877280380806400 513556 434835 437129 182748
830877280398999168 513181 434554 436821 182788
830877280417191936 512890 434420 436574 182775
830877280435384704 512633 434143 436320 182757
830877280453577600 512465 434041 436265 182781
830877280471770368 512279 433926 436200 182820
830877280489963136 512217 433827 436098 182816
830877280508155904 512225 433716 436139 182774
830877280526348672 512274 433704 436127 182819
830877280544541532 512239 433626 436117 182795
830877280562734080 512288 433631 436188 182768
830877280580926592 512311 433597 436149 182744
830877280599119104 512241 433613 436242 182763
830877280617311744 512304 433624 436212 182788
830877280635504256 512230 433527 436155 182754
830877280653696768 512214 433465 436217 182813
830877280671889280 512239 433469 436221 182791
830877280690081920 512316 433474 436254 182800
830877280708274432 512326 433459 436263 182832
830877280726466944 512359 433431 436317 182831
830877280744659456 512460 433434 436387 182791
830877280762852096 512546 433463 436431 182784
830877280781044608 512642 433521 436568 182811
830877280799237120 512766 433594 436623 182835
830877280817429632 512876 433619 436740 182804
830877280835622272 513098 433695 436906 182776
830877280853814784 513211 433799 437015 182786
830877280872007296 513354 433873 437153 182785
830877280890199808 513585 433931 437321 182832
830877280908392448 513759 434019 437451 182849
830877280926584960 513939 434082 437596 182866
830877280944777472 514110 434133 437753 182817
830877280962969984 514225 434209 437866 182797
830877280981162624 514396 434269 437982 182776
830877280999355136 514555 434435 438128 182817
830877281017547648 514811 434532 438252 182853
830877281035740160 514920 434539 438422 182807
830877281053932672 515157 434723 438567 182795
830877281072125312 515322 434841 438720 182785
830877281090317824 515475 434889 438848 182803
830877281108510336 515575 434913 438865 182798
830877281126702848 515357 434760 438636 182801
830877281144895488 514912 434596 438187 182816
830877281163088000 514345 434163 437765 182875
830877281181280512 513809 433852 437278 182809
830877281199473024 513285 433428 436733 182817
830877281217665664 512832 433106 436367 182813
830877281235858176 512426 432868 436020 182801
830877281254050688 512148 432634 435766 182783
830877281272243242 511945 432383 435637 182834
830877281290436480 511794 432295 435567 182776
830877281308629760 511658 432167 435447 182813
830877281326823040 511555 432101 435354 182824
830877281345016448 511453 431921 435319 182740
830877281363209728 511435 431859 435277 182746
830877281381403008 511488 431917 435291 182768
830877281399596288 511483 431866 435324 182782
830877281417789568 511604 431895 435347 182831
830877281435982976 511563 431794 435226 182766
830877281454176256 511621 431817 435290 182830
830877281472369536 511615 431787 435342 182778
830877281490562816 511598 431756 435310 182832
830877281508756096 511628 431722 435323 182832
830877281526949504 511670 431718 435470 182835
830877281545142784 511681 431671 435445 182791
830877281563336064 511767 431717 435508 182801
830877281581529344 511896 431707 435531 182849
830877281599722624 512017 431713 435701 182846
830877281617916032 512114 431745 435746 182828
830877281636109312 512224 431849 435898 182838
830877281654302592 512378 431939 435992 182838
830877281672495872 512551 432013 436123 182875
830877281690689152 512769 432073 436274 182873
830877281708882560 513006 432206 436442 182846
830877281727075840 513111 432287 436608 182846
830877281745269120 513301 432399 436729 182838
830877281763462400 513540 432503 436899 182853
830877281781655680 513653 432548 437008 182836
830877281799849088 513825 432544 437115 182808
830877281818042368 514026 432697 437328 182820
830877281836235648 514219 432779 437483 182790
830877281854428928 514404 432920 437620 182816
830877281872622208 514578 433004 437759 182832
830877281890815616 514773 433055 437904 182809
830877281909008896 514954 433161 438124 182783
830877281927202176 515210 433230 438229 182800
830877281945395456 515398 433319 438332 182825
830877281963588736 515578 433452 438455 182786
830877281981782144 515825 433614 438652 182824
830877281999975424 516000 433723 438769 182762
830877282018168704 516141 433823 438885 182770
830877282036362080 516157 433842 438827 182767
830877282054555392 515831 433617 438482 182794
830877282072748672 515410 433385 438094 182836
830877282090941952 514905 432989 437644 182845
830877282109135360 514447 432717 437232 182844
830877282127328640 513943 432354 436846 182805
830877282145521920 513588 432056 436467 182819
830877282163715200 513298 431887 436251 182838
830877282181908480 513035 431655 436057 182811
830877282200101888 512926 431480 435795 182839
830877282218295168 512766 431423 435769 182749
830877282236488448 512686 431307 435703 182791
830877282254681728 512677 431308 435678 182798
830877282272875008 512667 431195 435696 182780
830877282291068416 512719 431237 435701 182815
830877282309261696 512764 431248 435782 182842
830877282327454976 512785 431208 435800 182807
830877282345648256 512801 431221 435861 182819
830877282363841536 512831 431162 435817 182810
830877282382034944 512832 431179 435822 182793
830877282400228224 512850 431196 435817 182778
830877282418421504 512871 431178 435848 182793
830877282436614784 512955 431212 435924 182785
830877282454808064 512938 431127 435914 182776
830877282473001472 513122 431210 435978 182816
830877282491194752 513144 431208 436027 182845
830877282509388032 513254 431210 436127 182854
830877282527581312 513363 431279 436258 182838
830877282545774592 513589 431349 436415 182847
830877282563968000 513752 431416 436537 182829
830877282582161280 513899 431514 436673 182801
830877282600354560 514022 431623 436760 182799
830877282618547840 514250 431702 436928 182797
830877282636741120 514371 431769 437035 182779
830877282654934528 514611 431870 437200 182830
830877282673127808 514678 431967 437361 182722
830877282691321088 514923 432015 437477 182795
830877282709514368 515107 432095 437607 182774
830877282727707648 515258 432239 437772 182797
830877282745901056 515465 432329 437954 182788
830877282764094336 515687 432441 438140 182847
830877282782287616 515887 432576 438264 182882
830877282800480896 516066 432662 438423 182775
830877282818674223 516222 432785 438542 182815
830877282836866304 516443 432918 438705 182871
830877282855058432 516613 433054 438839 182777
830877282873250560 516811 433207 439010 182744
830877282891442688 517040 433246 439165 182745
830877282909634688 517257 433413 439372 182844
830877282927826816 517407 433538 439523 182833
830877282946018944 517645 433641 439724 182799
830877282964211072 517750 433720 439779 182833
830877282982403200 517567 433588 439552 182782
830877283000595328 517296 433408 439241 182822
830877283018787328 516868 433109 438836 182814
830877283036979456 516421 432828 438373 182814
830877283055171584 516070 432529 437989 182818
830877283073363712 515632 432254 437624 182782
830877283091555840 515338 432039 437400 182812
830877283109747968 515085 431796 437224 182796
830877283127939968 514914 431707 437077 182808
830877283146132096 514817 431556 436959 182782
830877283164324224 514803 431517 436971 182822
830877283182516352 514797 431486 437000 182844
830877283200708480 514809 431489 436999 182809
830877283218900608 514855 431521 437045 182847
830877283237092608 514870 431471 437076 182802
830877283255284736 514835 431523 437134 182753
830877283273476864 514881 431495 437128 182815
830877283291668992 514916 431497 437108 182820
830877283309861120 514949 431489 437079 182867
830877283328053248 514971 431473 437128 182864
830877283346245248 514959 431360 437113 182815
830877283364437376 514977 431398 437078 182802
830877283382629504 515020 431422 437209 182845
830877283400821632 515066 431408 437289 182880
830877283419013760 515170 431477 437309 182843
830877283437205888 515240 431473 437405 182831
830877283455397888 515328 431552 437497 182818
830877283473590016 515437 431563 437604 182835
830877283491782144 515596 431737 437747 182898
830877283509974272 515769 431797 437868 182870
830877283528166400 515845 431832 437920 182817
830877283546358528 515958 431925 438089 182798
830877283564550528 516128 432018 438229 182831
830877283582742705 516238 432037 438338 182872
830877283600935680 516444 432134 438490 182858
830877283619128704 516607 432210 438642 182844
830877283637321728 516776 432353 438809 182849
830877283655514752 516903 432428 438895 182860
830877283673707776 517075 432628 439046 182775
830877283691900928 517330 432766 439252 182864
830877283710093952 517522 432839 439414 182922
830877283728286976 517678 432885 439493 182895
830877283746480000 517826 432965 439722 182856
830877283764673024 518000 433060 439776 182875
830877283782866048 518161 433111 439957 182847
830877283801059072 518343 433291 440086 182853
830877283819252096 518512 433400 440251 182902
830877283837445120 518692 433531 440395 182886
830877283855638272 518771 433559 440428 182824
830877283873831296 518583 433502 440189 182879
830877283892024320 518297 433311 439817 182800
830877283910217344 517869 433013 439440 182838
830877283928410368 517352 432691 439050 182870
830877283946603392 516927 432392 438697 182843
830877283964796416 516521 432115 438359 182799
830877283982989440 516271 431923 438152 182855
830877284001182592 516019 431698 437991 182797
830877284019375616 515944 431671 437918 182844
830877284037568640 515802 431566 437820 182836
830877284055761664 515645 431462 437811 182845
830877284073954688 515569 431395 437816 182814
830877284092147712 515618 431488 437867 182818
830877284110340736 515700 431414 437930 182831
830877284128533760 515711 431468 437933 182827
830877284146726784 515744 431486 437955 182903
830877284164919936 515702 431481 437989 182854
830877284183112960 515721 431473 437979 182803
830877284201305984 515737 431534 437997 182866
830877284219499008 515689 431472 438038 182846
830877284237692032 515762 431422 438084 182851
830877284255885056 515686 431455 438076 182829
830877284274078080 515763 431379 438115 182832
830877284292271104 515840 431465 438267 182829
830877284310464253 515825 431420 438259 182767
830877284328658304 515961 431398 438332 182794
830877284346852352 516007 431488 438396 182744
830877284365046528 516147 431603 438466 182775
830877284383240576 516281 431694 438684 182803
830877284401434624 516320 431809 438713 182816
830877284419628800 516530 431883 438903 182872
830877284437822848 516682 431975 439040 182819
830877284456016896 516807 432081 439168 182851
830877284474211072 516981 432203 439334 182861
830877284492405120 517122 432238 439439 182843
830877284510599168 517331 432415 439638 182856
830877284528793216 517456 432538 439775 182869
830877284546987392 517650 432574 439977 182853
830877284565181440 517830 432687 440123 182841
830877284583375488 518015 432819 440271 182837
830877284601569664 518177 432929 440442 182864
830877284619763712 518433 433034 440562 182871
830877284637957760 518523 433126 440695 182811
830877284656151936 518745 433174 440897 182813
830877284674345984 518880 433358 441019 182824
830877284692540032 519115 433502 441232 182804
830877284710734208 519299 433627 441363 182829
830877284728928256 519467 433769 441502 182802
830877284747122304 519456 433797 441518 182807
830877284765316480 519173 433626 441289 182775
830877284783510528 518825 433421 440870 182796
830877284801704576 518378 433125 440475 182778
830877284819898624 517883 432776 440004 182781
830877284838092800 517320 432502 439681 182796
830877284856286848 516866 432197 439333 182785
830877284874480896 516607 432011 439122 182804
830877284892675072 516258 431809 438904 182804
830877284910869120 516075 431711 438820 182821
830877284929063168 515852 431591 438746 182800
830877284947257344 515722 431506 438706 182778
830877284965451392 515667 431438 438694 182816
830877284983645440 515626 431383 438625 182787
830877285001839616 515606 431332 438674 182785
830877285020033694 515560 431350 438680 182778
830877285038226944 515534 431344 438662 182836
830877285056420224 515494 431319 438660 182833
830877285074613504 515449 431309 438629 182833
830877285092806912 515460 431293 438668 182856
830877285111000192 515432 431334 438650 182854
830877285129193472 515372 431275 438686 182831
830877285147386752 515351 431254 438669 182859
830877285165580032 515374 431249 438772 182851
830877285183773440 515372 431290 438757 182838
830877285201966720 515370 431303 438826 182812
830877285220160000 515436 431320 438854 182784
830877285238353280 515492 431349 438971 182783
830877285256546560 515586 431385 439070 182822
830877285274739968 515667 431427 439110 182793
830877285292933248 515771 431547 439276 182807
830877285311126528 515854 431671 439322 182791
830877285329319808 516044 431793 439530 182799
830877285347513088 516138 431840 439595 182809
830877285365706496 516360 431907 439743 182842
830877285383899776 516483 432016 439846 182811
830877285402093056 516681 432078 440008 182877
830877285420286336 516825 432181 440188 182885
830877285438479616 516939 432269 440304 182777
830877285456673024 517137 432405 440493 182851
830877285474866304 517278 432468 440657 182832
830877285493059584 517406 432561 440816 182794
830877285511252864 517625 432681 440950 182781
830877285529446144 517784 432834 441125 182786
830877285547639552 517960 432875 441254 182792
830877285565832832 518148 433056 441430 182893
830877285584026112 518328 433211 441568 182887
830877285602219392 518498 433257 441722 182846
830877285620412672 518697 433409 441923 182834
830877285638606080 518893 433548 442030 182792
830877285656799360 518916 433605 442090 182821
830877285674992640 518653 433501 441844 182859
830877285693185920 518236 433310 441469 182863
830877285711379200 517749 433030 441107 182886
830877285729572608 517167 432614 440661 182798
830877285747765888 516660 432373 440257 182816
830877285765959227 516201 432088 439959 182771
830877285784152960 515822 431819 439661 182827
830877285802346752 515475 431618 439444 182820
830877285820540672 515232 431532 439277 182831
830877285838734464 515090 431415 439199 182860
830877285856928256 514975 431325 439154 182875
830877285875122048 514829 431244 439039 182868
830877285893315968 514793 431217 439055 182886
830877285911509760 514670 431152 439056 182829
830877285929703552 514732 431215 439088 182834
830877285947897344 514683 431235 439096 182835
830877285966091264 514656 431223 439126 182821
830877285984285056 514648 431255 439127 182936
830877286002478848 514581 431165 439053 182853
830877286020672768 514513 431161 439025 182860
830877286038866560 514502 431096 439012 182889
830877286057060352 514525 431110 439065 182878
830877286075254144 514461 431056 439037 182822
830877286093448064 514483 431113 439041 182867
830877286111641856 514544 431107 439106 182897
830877286129835648 514533 431145 439191 182895
830877286148029440 514584 431150 439215 182870
830877286166223360 514650 431195 439332 182867
830877286184417152 514705 431267 439360 182842
830877286202610944 514805 431284 439442 182815
830877286220804864 515005 431450 439609 182856
830877286238998656 515094 431486 439650 182832
830877286257192448 515225 431614 439796 182821
830877286275386240 515418 431660 439984 182901
830877286293580160 515479 431734 440106 182843
830877286311773952 515733 431809 440212 182854
830877286329967744 515838 431889 440417 182852
830877286348161536 516010 432062 440506 182847
830877286366355456 516178 432172 440678 182867
830877286384549248 516333 432225 440795 182815
830877286402743040 516577 432327 440984 182850
830877286420936960 516682 432438 441079 182921
830877286439130752 516827 432554 441241 182916
830877286457324544 517018 432700 441345 182917
830877286475518336 517175 432800 441511 182848
830877286493712256 517343 432981 441706 182866
830877286511906124 517577 433084 441814 182828
830877286530097152 517755 433199 441972 182917
830877286548288128 517739 433162 441964 182923
830877286566478976 517432 433012 441629 182905
830877286584669952 516955 432835 441305 182895
830877286602860928 516485 432539 440862 182860
830877286621051904 515931 432246 440474 182896
830877286639242752 515465 432012 440065 182907
830877286657433728 514975 431706 439739 182852
830877286675624704 514555 431428 439459 182817
830877286693815680 514270 431318 439304 182886
830877286712006528 514031 431118 439071 182931
830877286730197504 513874 431118 439063 182942
830877286748388480 513707 430976 438918 182837
830877286766579328 513677 430988 438904 182888
830877286784770304 513592 430889 438872 182821
830877286802961280 513593 430894 438960 182842
830877286821152256 513627 430848 438998 182842
830877286839343104 513671 430927 439007 182877
830877286857534080 513592 430879 438946 182849
830877286875725056 513532 430837 438971 182885
830877286893915904 513499 430829 438935 182839
830877286912106880 513413 430808 438857 182859
830877286930297856 513376 430806 438872 182854
830877286948488832 513364 430791 438886 182872
830877286966679680 513314 430771 438838 182818
830877286984870656 513329 430749 438870 182830
830877287003061632 513395 430831 438937 182867
830877287021252608 513385 430839 438890 182833
830877287039443456 513469 430847 439008 182858
830877287057634432 513566 430879 439107 182820
830877287075825408 513646 430897 439125 182822
830877287094016256 513720 431030 439233 182818
830877287112207232 513811 431062 439340 182884
830877287130398208 513922 431132 439513 182849
830877287148589184 514013 431227 439590 182827
830877287166780032 514161 431314 439700 182866
830877287184971008 514385 431484 439806 182847
830877287203161984 514525 431519 439869 182844
830877287221352832 514677 431604 439999 182867
830877287239543742 514835 431705 440158 182884
830877287257735680 514900 431756 440218 182799
830877287275927680 515101 431831 440392 182814
830877287294119680 515239 431933 440471 182810
830877287312311680 515402 432023 440595 182827
830877287330503680 515562 432133 440725 182825
830877287348695552 515703 432216 440886 182815
830877287366887552 515835 432283 440935 182834
830877287385079552 515833 432327 440989 182818
830877287403271552 515599 432261 440805 182852
830877287421463552 515193 432075 440417 182783
830877287439655552 514739 431786 440001 182839
830877287457847552 514230 431556 439583 182876
830877287476039552 513692 431216 439162 182853
830877287494231552 513223 430926 438801 182856
830877287512423424 512808 430661 438510 182801
830877287530615424 512506 430517 438348 182825
830877287548807424 512303 430357 438121 182833
830877287566999424 512199 430369 438103 182824
830877287585191424 512125 430276 438030 182837
830877287603383424 512040 430196 437962 182791
830877287621575424 512001 430137 437979 182820
830877287639767424 511955 430152 437995 182781
830877287657959424 512038 430184 438013 182816
830877287676151424 512053 430223 438073 182863
830877287694343296 512081 430200 438054 182841
830877287712535296 512043 430208 438084 182893
830877287730727296 511982 430218 438012 182861
830877287748919296 511977 430202 438074 182861
830877287767111296 511895 430129 437953 182784
830877287785303296 511854 430153 437958 182832
830877287803495296 511866 430118 437947 182873
830877287821687296 511892 430190 437947 182854
830877287839879296 511889 430183 437941 182864
830877287858071168 511882 430138 437971 182835
830877287876263168 511977 430182 438020 182837
830877287894455168 512086 430278 438180 182826
830877287912647229 512171 430282 438235 182814
830877287930840064 512274 430414 438298 182830
830877287949032960 512410 430426 438370 182855
830877287967225856 512499 430469 438427 182888
830877287985418752 512600 430624 438619 182890
830877288003611776 512767 430678 438702 182822
830877288021804672 512895 430762 438819 182810
830877288039997568 513065 430820 438953 182816
830877288058190464 513218 430973 439084 182856
830877288076383360 513349 431046 439189 182804
830877288094576256 513493 431169 439297 182853
830877288112769152 513660 431275 439470 182866
830877288130962176 513840 431358 439561 182862
830877288149155072 513973 431434 439679 182858
830877288167347968 513805 431433 439556 182829
830877288185540864 513449 431242 439245 182802
830877288203733760 512987 430958 438767 182838
830877288221926656 512346 430611 438291 182858
830877288240119552 511764 430360 437775 182832
830877288258312576 511147 429987 437246 182781
830877288276505472 510622 429639 436835 182802
830877288294698368 510280 429420 436553 182824
