TIMESTAMP PPG0 PPG1 PPG2 AMBIENT
830877339399311872 518576 442194 444470 182314
830877339417493632 518249 441945 444151 182367
830877339435675520 517977 441711 443970 182341
830877339453857280 517731 441577 443847 182288
830877339472039168 517602 441510 443749 182322
830877339490220928 517494 441362 443687 182351
830877339508402816 517389 441253 443629 182389
830877339526584576 517252 441171 443578 182355
830877339544766464 517174 441112 443551 182371
830877339562948224 517038 441058 443466 182346
830877339581130112 516946 440889 443373 182316
830877339599311872 516739 440730 443200 182318
830877339617493632 516594 440643 443105 182306
830877339635675520 516468 440550 443008 182323
830877339653857280 516332 440457 442910 182346
830877339672039168 516263 440363 442913 182306
830877339690220928 516271 440328 442908 182366
830877339708402816 516244 440310 442884 182369
830877339726584576 516218 440130 442868 182358
830877339744766464 516236 440225 442922 182376
830877339762948224 516264 440267 442912 182352
830877339781130112 516292 440288 442996 182372
830877339799311872 516340 440261 443047 182314
830877339817493632 516457 440316 443127 182337
830877339835675520 516531 440317 443207 182375
830877339853857280 516618 440367 443261 182349
830877339872039168 516690 440396 443294 182318
830877339890220928 516880 440487 443447 182373
830877339908402816 516955 440482 443523 182343
830877339926584576 517101 440515 443616 182317
830877339944766464 517182 440592 443699 182383
830877339962948224 517101 440613 443669 182327
830877339981130112 516641 440338 443276 182325
830877339999311872 515940 439895 442738 182334
830877340017493632 515046 439349 442111 182340
830877340035675520 514149 438815 441465 182332
830877340053857280 513357 438174 440795 182369
830877340072039168 512645 437713 440221 182317
830877340090220937 512040 437261 439725 182304
830877340108414208 511541 436948 439373 182300
830877340126607488 511081 436598 439007 182316
830877340144800768 510791 436405 438798 182367
830877340162994176 510481 436126 438575 182308
830877340181187456 510268 435935 438369 182306
830877340199380736 510141 435776 438272 182300
830877340217574016 510105 435664 438149 182307
830877340235767296 509920 435550 438065 182280
830877340253960704 509863 435444 437952 182331
830877340272153984 509701 435341 437884 182339
830877340290347264 509581 435226 437748 182304
830877340308540544 509459 435044 437608 182284
830877340326733824 509302 434993 437494 182289
830877340344927232 509177 434906 437395 182317
830877340363120512 509072 434835 437332 182396
830877340381313792 509045 434716 437274 182332
830877340399507072 508964 434607 437279 182316
830877340417700352 509016 434589 437342 182361
830877340435893760 508918 434536 437263 182316
830877340454087040 508978 434497 437289 182308
830877340472280320 508991 434514 437284 182274
830877340490473600 509000 434465 437325 182262
830877340508666880 509019 434516 437335 182291
830877340526860288 509191 434530 437354 182313
830877340545053568 509266 434585 437437 182333
830877340563246848 509424 434624 437521 182307
830877340581440128 509500 434661 437672 182332
830877340599633408 509611 434695 437684 182291
830877340617826816 509785 434754 437817 182342
830877340636020096 509944 434805 437886 182305
830877340654213376 510114 434906 438072 182320
830877340672406656 510258 434941 438117 182340
830877340690599936 510373 435006 438227 182308
830877340708793344 510461 435118 438346 182307
830877340726986624 510207 434918 438108 182289
830877340745179904 509711 434613 437673 182321
830877340763373184 508964 434101 437025 182302
830877340781566464 508134 433529 436331 182318
830877340799759858 507355 433004 435680 182333
830877340817953280 506651 432453 435083 182325
830877340836146688 506053 432049 434631 182307
830877340854340096 505512 431621 434180 182273
830877340872533504 505212 431416 433884 182309
830877340890726784 504954 431098 433664 182245
830877340908920192 504701 430956 433484 182357
830877340927113600 504555 430731 433361 182309
830877340945307008 504449 430641 433206 182307
830877340963500416 504419 430583 433097 182334
830877340981693824 504324 430490 432984 182274
830877340999887232 504242 430352 433017 182348
830877341018080512 504209 430307 432970 182281
830877341036273920 504090 430171 432820 182270
830877341054467328 504063 430124 432745 182302
830877341072660736 503945 430015 432702 182301
830877341090854144 503906 429940 432612 182339
830877341109047552 503784 429873 432592 182278
830877341127240960 503775 429810 432566 182297
830877341145434368 503784 429766 432523 182253
830877341163627648 503935 429753 432580 182343
830877341181821056 503960 429763 432565 182335
830877341200014464 504048 429796 432672 182313
830877341218207872 504156 429788 432685 182304
830877341236401280 504293 429900 432818 182320
830877341254594688 504491 429935 432923 182344
830877341272788096 504579 429929 433001 182325
830877341290981376 504774 429978 433097 182253
830877341309174784 504925 430082 433128 182299
830877341327368192 505035 430048 433185 182273
830877341345561600 505163 430094 433132 182276
830877341363755008 505290 430147 433184 182236
830877341381948416 505493 430226 433286 182250
830877341400141824 505684 430276 433365 182228
830877341418335104 505950 430477 433579 182318
830877341436528512 506143 430507 433680 182349
830877341454721916 506315 430634 433852 182332
830877341472913152 506527 430794 434010 182354
830877341491104384 506739 430910 434101 182320
830877341509295488 506853 430985 434133 182354
830877341527486720 506637 430881 434026 182390
830877341545677952 506113 430617 433607 182285
830877341563869056 505500 430171 433073 182293
830877341582060288 504795 429630 432416 182316
830877341600251520 504058 429181 431847 182276
830877341618442624 503449 428699 431342 182307
830877341636633856 502930 428204 430902 182252
830877341654824960 502570 427920 430610 182270
830877341673016192 502330 427710 430336 182267
830877341691207424 502143 427552 430146 182263
830877341709398528 502062 427321 430061 182252
830877341727589760 501980 427224 429955 182237
830877341745780992 501972 427237 429963 182252
830877341763972096 502034 427187 429893 182269
830877341782163328 502090 427187 429910 182245
830877341800354560 502133 427148 429958 182279
830877341818545664 502111 427138 429891 182283
830877341836736896 502144 427165 429875 182269
830877341854928128 502117 427102 429851 182265
830877341873119232 502124 427032 429856 182201
830877341891310464 502162 427045 429819 182237
830877341909501568 502144 427019 429796 182246
830877341927692800 502231 427065 429892 182232
830877341945884032 502325 427042 429926 182232
830877341964075136 502409 427042 430005 182331
830877341982266368 502573 427117 430005 182218
830877342000457600 502678 427165 430109 182291
830877342018648704 502805 427263 430269 182301
830877342036839936 503029 427336 430405 182272
830877342055031168 503225 427537 430498 182280
830877342073222272 503454 427623 430623 182258
830877342091413504 503680 427701 430777 182235
830877342109604628 503833 427851 430995 182254
830877342127796736 504106 427947 431088 182305
830877342145988864 504352 428069 431207 182271
830877342164180864 504558 428137 431344 182265
830877342182372992 504807 428274 431491 182289
830877342200564992 504979 428358 431652 182252
830877342218757120 505249 428567 431824 182278
830877342236949120 505459 428642 431999 182225
830877342255141248 505762 428786 432144 182252
830877342273333248 505992 428937 432338 182230
830877342291525376 506108 429019 432434 182217
830877342309717376 506027 428923 432290 182252
830877342327909504 505669 428679 431964 182245
830877342346101504 505122 428313 431452 182248
830877342364293632 504636 427934 430988 182283
830877342382485632 504153 427457 430533 182279
830877342400677760 503647 427035 430081 182318
830877342418869888 503338 426801 429776 182223
830877342437061888 503136 426577 429582 182349
830877342455254016 502952 426389 429452 182293
830877342473446016 502878 426274 429345 182268
830877342491638144 502941 426270 429331 182271
830877342509830144 502990 426278 429340 182281
830877342528022272 503064 426296 429413 182227
830877342546214272 503294 426364 429526 182281
830877342564406400 503349 426458 429580 182298
830877342582598400 503497 426470 429697 182307
830877342600790528 503525 426455 429657 182264
830877342618982528 503624 426475 429678 182263
830877342637174656 503770 426486 429737 182220
830877342655366784 503807 426534 429746 182230
830877342673558784 503911 426540 429813 182219
830877342691750912 504017 426651 429875 182248
830877342709942912 504136 426607 429896 182296
830877342728135040 504314 426724 430030 182261
830877342746327040 504487 426792 430147 182292
830877342764519168 504679 426942 430292 182313
830877342782711165 504902 427068 430459 182296
830877342800903680 505150 427237 430708 182266
830877342819096192 505372 427364 430883 182237
830877342837288704 505628 427501 430987 182245
830877342855481088 505904 427672 431174 182233
830877342873673600 506138 427797 431382 182245
830877342891866112 506436 428014 431583 182280
830877342910058624 506702 428174 431753 182282
830877342928251008 506999 428281 431960 182279
830877342946443520 507309 428488 432187 182273
830877342964636032 507626 428630 432358 182319
830877342982828544 507875 428798 432628 182297
830877343001020928 508159 428921 432748 182270
830877343019213440 508462 429117 432982 182329
830877343037405952 508759 429271 433178 182309
830877343055598464 509090 429461 433404 182312
830877343073790848 509197 429568 433474 182270
830877343091983360 509057 429411 433346 182278
830877343110175872 508745 429185 432904 182295
830877343128368384 508257 428792 432411 182270
830877343146560768 507795 428406 431922 182283
830877343164753280 507275 428032 431479 182281
830877343182945792 506814 427644 431122 182216
830877343201138304 506563 427383 430876 182227
830877343219330688 506349 427173 430661 182224
830877343237523200 506267 427057 430555 182238
830877343255715712 506198 426962 430438 182214
830877343273908224 506134 426944 430378 182256
830877343292100608 506097 426872 430388 182283
830877343310293120 506135 426836 430373 182324
830877343328485632 506299 426913 430453 182316
830877343346678144 506357 426894 430452 182304
830877343364870528 506466 426911 430491 182302
830877343383063040 506561 427051 430598 182323
830877343401255552 506673 427069 430642 182301
830877343419448064 506746 427062 430679 182245
830877343437640576 506893 427089 430754 182250
830877343455832960 507075 427257 430841 182269
830877343474025344 507223 427240 430892 182259
830877343492217728 507379 427335 430995 182267
830877343510410112 507551 427404 431164 182237
830877343528602368 507722 427552 431329 182301
830877343546794752 507918 427597 431455 182231
830877343564987136 508181 427832 431569 182275
830877343583179520 508374 427916 431843 182312
830877343601371904 508584 427999 431950 182280
830877343619564288 508860 428185 432173 182301
830877343637756544 509127 428349 432347 182273
830877343655948928 509442 428553 432562 182274
830877343674141312 509713 428698 432767 182297
830877343692333696 509977 428911 433001 182289
830877343710526080 510341 429114 433217 182301
830877343728718336 510608 429329 433438 182314
830877343746910720 510945 429502 433627 182234
830877343765103104 511223 429639 433875 182282
830877343783295488 511516 429827 434172 182312
830877343801487872 511872 430035 434345 182280
830877343819680256 512098 430294 434569 182322
830877343837872512 512404 430351 434764 182236
830877343856064896 512850 430620 435043 182309
830877343874257280 513089 430803 435227 182269
830877343892449664 513401 430994 435481 182251
830877343910642048 513689 431156 435686 182242
830877343928834432 513720 431229 435670 182204
830877343947026688 513639 431162 435498 182332
830877343965219072 513248 430820 435120 182247
830877343983411456 512873 430506 434720 182293
830877344001603840 512415 430151 434238 182285
830877344019796224 512096 429870 433946 182246
830877344037988480 511881 429619 433713 182224
830877344056180864 511725 429478 433543 182233
830877344074373248 511653 429275 433457 182240
830877344092565632 511573 429231 433359 182220
830877344110758016 511572 429310 433419 182214
830877344128950400 511651 429237 433338 182193
830877344147142656 511677 429190 433425 182190
830877344165335040 511795 429306 433442 182229
830877344183527424 511918 429385 433555 182273
830877344201719808 512089 429353 433578 182273
830877344219912124 512233 429480 433674 182231
830877344238103808 512369 429555 433831 182253
830877344256295552 512466 429633 433875 182310
830877344274487424 512598 429677 433914 182270
830877344292679168 512763 429764 434028 182237
830877344310870912 512888 429894 434182 182245
830877344329062656 513033 429889 434211 182233
830877344347254528 513231 430070 434322 182227
830877344365446272 513424 430215 434490 182237
830877344383638016 513639 430289 434617 182267
830877344401829888 513838 430517 434798 182254
830877344420021632 514123 430641 434979 182252
830877344438213376 514347 430768 435159 182212
830877344456405120 514662 430891 435421 182212
830877344474596992 514934 431087 435597 182261
830877344492788736 515194 431263 435830 182253
830877344510980480 515493 431497 436045 182213
830877344529172224 515788 431636 436290 182244
830877344547364096 516098 431871 436492 182262
830877344565555840 516360 432086 436706 182297
830877344583747584 516721 432298 436932 182268
830877344601939456 516956 432479 437134 182244
830877344620131200 517302 432693 437388 182242
830877344638322944 517633 432927 437608 182242
830877344656514688 517904 433185 437882 182265
830877344674706560 518244 433317 438109 182259
830877344692898304 518546 433468 438321 182267
830877344711090048 518779 433660 438532 182238
830877344729281920 519115 433883 438774 182234
830877344747473664 519435 434102 439008 182220
830877344765665408 519828 434354 439322 182273
830877344783857152 520139 434622 439576 182274
830877344802049024 520416 434818 439781 182274
830877344820240768 520596 434848 439841 182309
830877344838432512 520436 434775 439715 182305
830877344856624256 520207 434569 439457 182316
830877344874816128 519915 434420 439157 182319
830877344893007872 519601 434125 438808 182316
830877344911199616 519359 433909 438596 182273
830877344929391488 519198 433661 438318 182334
830877344947583232 519044 433538 438214 182310
830877344965774976 518999 433542 438174 182278
830877344983966874 519030 433436 438202 182230
830877345002159744 519153 433460 438179 182262
830877345020352640 519189 433496 438253 182244
830877345038545536 519395 433532 438369 182267
830877345056738304 519565 433652 438515 182309
830877345074931200 519646 433800 438604 182242
830877345093124096 519810 433885 438698 182283
830877345111316992 519936 433975 438845 182291
830877345129509888 520010 434076 438909 182278
830877345147702656 520187 434139 438956 182230
830877345165895552 520310 434212 439125 182317
830877345184088448 520477 434390 439209 182284
830877345202281344 520560 434404 439269 182253
830877345220474240 520703 434530 439439 182282
830877345238667008 520918 434550 439548 182229
830877345256859904 521142 434676 439726 182237
830877345275052800 521285 434797 439850 182224
830877345293245696 521507 435018 439970 182276
830877345311438592 521724 435118 440238 182314
830877345329631360 521967 435273 440404 182284
830877345347824256 522135 435460 440592 182264
830877345366017152 522411 435601 440790 182309
830877345384210048 522673 435782 440941 182241
830877345402402816 522925 435953 441187 182251
830877345420595712 523252 436144 441381 182283
830877345438788608 523501 436316 441639 182298
830877345456981504 523754 436494 441863 182248
830877345475174400 524078 436720 442056 182331
830877345493367168 524350 436966 442323 182315
830877345511560064 524598 437084 442504 182296
830877345529752960 524914 437333 442743 182274
830877345547945856 525173 437491 442988 182316
830877345566138752 525457 437682 443206 182333
830877345584331520 525682 437921 443405 182263
830877345602524416 526029 438150 443725 182342
830877345620717312 526294 438318 443913 182283
830877345638910208 526555 438457 444039 182222
830877345657103104 526485 438449 443977 182250
830877345675295872 526383 438375 443864 182295
830877345693488768 526178 438272 443583 182264
830877345711681664 525878 438037 443337 182289
830877345729874560 525615 437853 443056 182258
830877345748067402 525423 437678 442883 182296
830877345766259328 525271 437561 442675 182275
830877345784451200 525190 437520 442626 182304
830877345802643072 525200 437492 442670 182271
830877345820834944 525220 437501 442611 182291
830877345839026688 525326 437551 442709 182280
830877345857218560 525418 437599 442723 182286
830877345875410432 525507 437620 442858 182266
830877345893602304 525632 437724 442929 182293
830877345911794176 525802 437868 443057 182287
830877345929986048 525930 437984 443233 182286
830877345948177792 526117 438062 443318 182298
830877345966369664 526186 438184 443429 182318
830877345984561536 526288 438288 443530 182259
830877346002753408 526487 438349 443627 182353
830877346020945280 526668 438485 443695 182368
830877346039137152 526806 438524 443804 182347
830877346057329024 526919 438665 443904 182333
830877346075520768 527131 438781 444073 182354
830877346093712640 527284 438879 444189 182334
830877346111904512 527473 438995 444349 182273
830877346130096384 527632 439171 444469 182275
830877346148288256 527899 439317 444640 182237
830877346166480128 528065 439469 444856 182271
830877346184671872 528317 439688 445101 182276
830877346202863744 528530 439820 445236 182255
830877346221055616 528819 439992 445418 182295
830877346239247488 529118 440216 445631 182287
830877346257439360 529321 440363 445818 182310
830877346275631232 529555 440623 446120 182374
830877346293823104 529875 440781 446269 182276
830877346312014848 530148 440889 446510 182267
830877346330206720 530430 441140 446759 182266
830877346348398592 530644 441307 447001 182272
830877346366590464 530941 441557 447223 182301
830877346384782336 531151 441740 447454 182298
830877346402974208 531407 441874 447622 182269
830877346421165952 531696 442078 447854 182306
830877346439357824 531978 442340 448115 182352
830877346457549696 532231 442487 448290 182336
830877346475741568 532371 442625 448371 182331
830877346493933440 532218 442554 448227 182344
830877346512125204 531982 442451 448039 182325
830877346530318208 531706 442290 447777 182316
830877346548511232 531309 442034 447469 182324
830877346566704256 530980 441785 447170 182281
830877346584897280 530749 441758 446949 182302
830877346603090304 530609 441623 446856 182286
830877346621283328 530509 441526 446715 182291
830877346639476352 530443 441507 446686 182309
830877346657669376 530376 441492 446669 182278
830877346675862272 530395 441476 446603 182324
830877346694055296 530485 441541 446636 182284
830877346712248320 530503 441581 446693 182278
830877346730441344 530531 441618 446758 182265
830877346748634368 530638 441642 446887 182307
830877346766827392 530679 441739 446922 182310
830877346785020416 530770 441898 447003 182258
830877346803213440 530821 441871 447030 182222
830877346821406464 530962 441965 447100 182276
830877346839599488 531058 442056 447192 182315
830877346857792512 531132 442118 447283 182322
830877346875985536 531109 442136 447300 182276
830877346894178560 531212 442231 447404 182276
830877346912371584 531372 442455 447553 182346
830877346930564480 531452 442518 447624 182272
830877346948757504 531579 442521 447767 182299
830877346966950528 531840 442647 447928 182287
830877346985143552 532005 442792 448079 182326
830877347003336576 532179 442908 448219 182265
830877347021529600 532391 443107 448404 182321
830877347039722624 532546 443281 448609 182278
830877347057915648 532838 443476 448844 182280
830877347076108672 533007 443565 448990 182330
830877347094301696 533193 443781 449136 182304
830877347112494720 533470 443938 449323 182327
830877347130687744 533639 444117 449520 182337
830877347148880768 533859 444232 449708 182297
830877347167073792 534084 444433 449935 182323
830877347185266688 534361 444648 450156 182333
830877347203459712 534644 444829 450395 182359
830877347221652736 534867 444944 450580 182359
830877347239845760 535099 445141 450712 182332
830877347258038784 535303 445310 450985 182317
830877347276231832 535478 445475 451084 182308
830877347294424064 535803 445715 451383 182352
830877347312616320 535974 445857 451520 182360
830877347330808704 536125 445982 451691 182324
830877347349000960 536047 446050 451645 182318
830877347367193216 535882 445948 451521 182327
830877347385385472 535535 445772 451203 182305
830877347403577856 535213 445595 450898 182306
830877347421770112 534725 445356 450614 182252
830877347439962368 534444 445240 450332 182304
830877347458154624 534094 444985 450054 182205
830877347476347008 533949 444980 449957 182220
830877347494539264 533818 444924 449852 182261
830877347512731520 533723 444866 449837 182249
830877347530923776 533740 444899 449769 182297
830877347549116160 533669 444885 449790 182349
830877347567308416 533669 444907 449856 182350
830877347585500672 533665 444885 449831 182233
830877347603692928 533739 444965 449901 182255
830877347621885312 533766 445078 449972 182257
830877347640077568 533777 445143 450015 182262
830877347658269824 533792 445130 450030 182249
830877347676462080 533802 445204 450043 182296
830877347694654464 533781 445223 450092 182249
830877347712846720 533854 445319 450170 182267
830877347731038976 533841 445372 450263 182240
830877347749231232 533919 445407 450298 182275
830877347767423616 533945 445473 450349 182271
830877347785615872 534037 445530 450377 182290
830877347803808128 534098 445652 450494 182264
830877347822000384 534144 445698 450544 182265
830877347840192768 534338 445841 450681 182284
830877347858385024 534440 445932 450843 182247
830877347876577280 534562 446079 450936 182291
830877347894769536 534692 446233 451132 182266
830877347912961920 534838 446345 451251 182207
830877347931154176 534974 446488 451392 182269
830877347949346432 535196 446658 451576 182272
830877347967538688 535408 446800 451747 182271
830877347985731072 535602 446896 451908 182323
830877348003923328 535773 447041 452047 182299
830877348022115584 535904 447152 452227 182267
830877348040307946 536074 447363 452388 182252
830877348058499712 536297 447512 452532 182268
830877348076691456 536531 447632 452694 182291
830877348094883328 536756 447799 452958 182315
830877348113075072 536951 447938 453119 182323
830877348131266816 537104 448119 453273 182305
830877348149458560 537387 448318 453493 182340
830877348167650432 537592 448482 453699 182312
830877348185842176 537814 448627 453853 182359
830877348204033920 537752 448596 453852 182287
830877348222225792 537670 448661 453786 182354
830877348240417536 537312 448577 453527 182324
830877348258609280 536925 448356 453245 182353
830877348276801024 536413 448104 452773 182335
830877348294992896 536048 447967 452489 182317
830877348313184640 535639 447794 452201 182257
830877348331376384 535337 447673 452067 182332
830877348349568128 535162 447588 451909 182392
830877348367760000 534952 447533 451842 182335
830877348385951744 534851 447482 451737 182317
830877348404143488 534739 447435 451630 182261
830877348422335360 534718 447472 451676 182285
830877348440527104 534681 447499 451755 182301
830877348458718848 534689 447543 451785 182334
830877348476910592 534772 447630 451870 182336
830877348495102464 534752 447666 451794 182325
830877348513294208 534714 447724 451808 182275
830877348531485952 534736 447702 451849 182315
830877348549677824 534695 447747 451825 182304
830877348567869568 534648 447862 451866 182304
830877348586061312 534666 447820 451906 182287
830877348604253056 534694 447851 451947 182271
830877348622444928 534657 447839 451914 182322
830877348640636672 534695 447918 451982 182327
830877348658828416 534708 448001 451999 182262
830877348677020288 534741 448048 452066 182256
830877348695212032 534796 448135 452067 182251
830877348713403776 534948 448233 452267 182293
830877348731595580 535110 448345 452422 182387
830877348749787904 535207 448425 452438 182314
830877348767980288 535288 448545 452533 182253
830877348786172672 535441 448595 452652 182247
830877348804365056 535668 448774 452841 182342
830877348822557440 535782 448919 453017 182289
830877348840749824 535934 449071 453128 182337
830877348858942208 536066 449210 453304 182336
830877348877134592 536253 449270 453436 182318
830877348895326976 536408 449454 453609 182336
830877348913519360 536615 449521 453774 182324
830877348931711744 536764 449700 453900 182353
830877348949904128 536933 449874 454042 182341
830877348968096512 537057 450032 454208 182355
830877348986288896 537282 450156 454335 182377
830877349004481280 537358 450241 454435 182315
830877349022673664 537250 450219 454332 182346
830877349040866048 536881 450118 454088 182323
830877349059058432 536463 449951 453813 182391
830877349077250816 535987 449765 453500 182385
830877349095443200 535480 449514 453134 182334
830877349113635584 535072 449336 452842 182373
830877349131827968 534741 449208 452573 182351
830877349150020352 534385 448975 452292 182282
830877349168212736 534179 448875 452128 182269
830877349186405120 534030 448822 451992 182303
830877349204597504 533919 448765 451900 182324
830877349222789888 533825 448734 451900 182276
830877349240982272 533863 448768 451965 182318
830877349259174656 533878 448826 452021 182330
830877349277367040 533829 448860 451932 182318
830877349295559424 533780 448856 451961 182296
830877349313751808 533789 448827 451896 182287
830877349331944192 533766 448874 451918 182320
830877349350136576 533744 448860 451927 182352
830877349368328960 533732 448920 451866 182372
830877349386521344 533738 448905 451908 182305
830877349404713728 533719 448935 451974 182301
830877349422906112 533720 448995 451942 182307
830877349441098496 533692 449035 451981 182278
830877349459290880 533674 449059 452053 182265
830877349477483264 533736 449112 452164 182289
830877349495675648 533847 449193 452169 182286
830877349513868051 533894 449296 452268 182323
830877349532060672 534040 449365 452358 182347
830877349550253312 534093 449424 452438 182324
830877349568446080 534275 449566 452588 182321
830877349586638720 534385 449632 452662 182335
830877349604831360 534568 449746 452852 182372
830877349623024128 534681 449897 452933 182365
830877349641216768 534849 449970 453111 182356
830877349659409408 535008 450051 453212 182331
830877349677602048 535205 450206 453356 182325
830877349695794816 535370 450353 453527 182340
830877349713987456 535527 450521 453704 182341
830877349732180096 535654 450612 453846 182337
830877349750372864 535804 450629 453956 182333
830877349768565504 536024 450750 454109 182352
830877349786758144 536228 450987 454309 182393
830877349804950912 536249 451024 454319 182374
830877349823143552 536038 450962 454203 182347
830877349841336192 535632 450828 453875 182325
830877349859528960 535083 450552 453473 182319
830877349877721600 534524 450294 453048 182360
830877349895914240 534026 449984 452619 182343
830877349914107008 533478 449706 452200 182286
830877349932299648 533123 449522 451873 182313
830877349950492288 532762 449264 451595 182354
830877349968684928 532466 449096 451389 182360
830877349986877696 532226 448999 451291 182315
830877350005070336 532068 448914 451178 182307
830877350023262976 531876 448818 451036 182329
830877350041455744 531799 448753 451000 182351
830877350059648384 531701 448750 450922 182325
830877350077841024 531667 448753 450937 182327
830877350096033792 531573 448740 450880 182338
830877350114226432 531617 448709 450842 182396
830877350132419072 531521 448641 450786 182301
830877350150611840 531431 448531 450734 182308
830877350168804480 531364 448510 450633 182303
830877350186997120 531327 448526 450617 182333
830877350205189760 531211 448444 450571 182310
830877350223382558 531105 448438 450532 182359
830877350241575680 531152 448439 450552 182369
830877350259768832 531141 448416 450499 182309
830877350277961984 531215 448436 450592 182374
830877350296155136 531181 448492 450554 182387
830877350314348288 531191 448504 450639 182319
830877350332541440 531232 448569 450679 182377
830877350350734592 531281 448543 450627 182309
830877350368927744 531423 448659 450767 182336
830877350387120896 531509 448751 450856 182364
830877350405314048 531643 448850 450991 182337
830877350423507072 531790 448894 451106 182379
830877350441700224 531927 448936 451184 182386
830877350459893376 532042 449087 451363 182374
830877350478086528 532163 449185 451461 182352
830877350496279680 532279 449340 451557 182355
830877350514472832 532446 449359 451706 182325
830877350532665984 532501 449446 451781 182361
830877350550859136 532674 449555 451855 182379
830877350569052288 532747 449608 451897 182346
830877350587245440 532951 449671 451987 182295
830877350605438592 533113 449821 452234 182372
830877350623631744 533145 449813 452210 182309
830877350641824896 533046 449853 452188 182353
830877350660018048 532668 449648 451869 182373
830877350678211200 532054 449394 451405 182312
830877350696404352 531421 449004 450911 182282
830877350714597504 530822 448641 450475 182322
830877350732790656 530256 448324 450037 182338
830877350750983808 529793 447965 449625 182303
830877350769176832 529409 447624 449312 182310
830877350787369984 529032 447438 449117 182275
830877350805563136 528719 447282 448857 182310
830877350823756288 528542 447154 448668 182315
830877350841949440 528403 447006 448566 182329
830877350860142592 528266 446920 448481 182257
830877350878335744 528175 446803 448356 182274
830877350896528896 528081 446690 448279 182255
830877350914722074 528007 446651 448185 182279
830877350932914304 527888 446625 448104 182299
830877350951106560 527821 446512 448018 182295
830877350969298944 527720 446479 448015 182301
830877350987491200 527620 446350 447898 182340
830877351005683456 527458 446276 447829 182360
830877351023875712 527388 446195 447707 182343
830877351042068096 527276 446204 447745 182286
830877351060260352 527251 446162 447653 182267
830877351078452608 527252 446097 447604 182229
830877351096644864 527244 446076 447662 182257
830877351114837248 527238 446021 447635 182262
830877351133029504 527279 446056 447654 182291
830877351151221760 527267 446048 447745 182354
830877351169414016 527406 446065 447779 182286
830877351187606400 527425 446170 447796 182335
830877351205798656 527531 446168 447836 182279
830877351223990912 527624 446220 447961 182306
830877351242183168 527749 446295 448039 182290
830877351260375552 527859 446324 448150 182290
830877351278567808 527997 446406 448234 182343
830877351296760064 528075 446468 448361 182312
830877351314952320 528192 446550 448422 182302
830877351333144704 528276 446587 448492 182313
830877351351336960 528402 446680 448631 182360
830877351369529216 528557 446779 448746 182391
830877351387721472 528694 446835 448847 182324
830877351405913856 528911 446878 448980 182373
830877351424106112 528956 446939 449050 182321
830877351442298368 529061 446997 449146 182256
830877351460490624 529016 447094 449111 182341
830877351478683008 528723 446897 448842 182369
830877351496875264 528211 446632 448429 182336
830877351515067520 527613 446283 447987 182284
830877351533259776 526994 445836 447421 182284
830877351551452160 526410 445344 446961 182358
830877351569644416 525883 445056 446593 182331
830877351587836672 525499 444744 446242 182292
830877351606028928 525117 444462 445902 182307
830877351624221321 524903 444205 445717 182354
830877351642414080 524691 444048 445499 182308
830877351660606848 524592 443876 445409 182346
830877351678799616 524403 443792 445317 182312
830877351696992384 524354 443784 445293 182340
830877351715185152 524314 443668 445165 182334
830877351733377920 524277 443537 445128 182302
830877351751570688 524152 443475 445055 182281
830877351769763456 524033 443377 445005 182319
830877351787956224 523893 443336 444894 182237
830877351806148992 523845 443249 444821 182276
830877351824341760 523745 443200 444736 182352
830877351842534528 523605 443096 444587 182305
830877351860727296 523552 442996 444541 182359
830877351878920064 523482 442914 444508 182278
830877351897112832 523461 442872 444486 182317
830877351915305600 523444 442809 444470 182335
830877351933498368 523467 442763 444470 182338
830877351951691136 523447 442755 444467 182323
830877351969884032 523423 442813 444456 182323
830877351988076800 523603 442866 444553 182350
830877352006269568 523652 442914 444581 182326
830877352024462336 523752 442888 444667 182360
830877352042655104 523846 442862 444737 182342
830877352060847872 523841 442911 444675 182321
830877352079040640 524024 443012 444837 182323
830877352097233408 524122 443024 444927 182295
830877352115426176 524242 443081 445037 182297
830877352133618944 524281 443027 445058 182283
830877352151811712 524399 443196 445228 182284
830877352170004480 524564 443301 445282 182278
830877352188197248 524622 443312 445354 182297
830877352206390016 524743 443422 445485 182321
830877352224582784 524939 443461 445574 182279
830877352242775552 525082 443570 445704 182348
830877352260968320 524950 443543 445606 182323
830877352279161088 524660 443311 445304 182332
830877352297353856 524188 443034 444873 182255
830877352315546624 523609 442606 444398 182338
830877352333739392 522968 442197 443884 182391
830877352351932189 522393 441746 443422 182330
830877352370124672 521835 441409 443007 182354
830877352388317184 521415 441050 442603 182330
830877352406509696 521084 440744 442318 182336
830877352424702336 520754 440499 442099 182308
830877352442894848 520603 440335 441920 182323
830877352461087360 520462 440173 441782 182280
830877352479279872 520378 440033 441688 182308
830877352497472512 520378 440039 441700 182324
830877352515665024 520345 439991 441639 182379
830877352533857536 520274 439922 441575 182378
830877352552050048 520169 439838 441502 182304
830877352570242688 520090 439732 441404 182283
830877352588435200 520062 439671 441349 182334
830877352606627712 519946 439615 441266 182309
830877352624820224 519849 439448 441187 182317
830877352643012864 519831 439389 441102 182306
830877352661205376 519762 439374 441063 182378
830877352679397888 519682 439293 441090 182327
830877352697590400 519708 439245 441077 182279
830877352715783040 519762 439271 441063 182276
830877352733975552 519731 439268 441086 182343
830877352752168064 519832 439233 441089 182355
830877352770360576 519917 439224 441185 182316
830877352788553216 520009 439284 441254 182339
830877352806745728 520136 439306 441389 182315
830877352824938240 520278 439427 441380 182298
830877352843130752 520349 439441 441490 182266
830877352861323264 520447 439566 441624 182287
830877352879515904 520564 439611 441724 182320
830877352897708416 520742 439675 441818 182377
830877352915900928 520894 439758 441884 182315
830877352934093440 521014 439839 442033 182251
830877352952286080 521210 439941 442189 182265
830877352970478592 521348 439919 442291 182307
830877352988671104 521473 440051 442424 182322
830877353006863616 521627 440178 442572 182337
830877353025056256 521691 440207 442564 182330
830877353043248768 521617 440118 442466 182282
830877353061441280 521314 439916 442104 182360
830877353079633899 520669 439541 441643 182354
830877353097826432 520001 439070 441055 182320
830877353116018944 519355 438585 440502 182331
830877353134211456 518721 438162 439935 182336
830877353152403840 518096 437677 439384 182330
830877353170596352 517570 437279 438944 182262
830877353188788864 517219 437013 438640 182256
830877353206981376 516878 436733 438394 182273
830877353225173760 516694 436486 438263 182298
830877353243366272 516513 436319 438039 182318
830877353261558784 516291 436130 437864 182325
830877353279751296 516129 435989 437809 182296
830877353297943680 516046 435878 437630 182327
830877353316136192 515927 435762 437624 182303
830877353334328704 515810 435712 437493 182298
830877353352521216 515732 435624 437420 182271
830877353370713600 515660 435499 437357 182391
830877353388906112 515510 435402 437186 182289
830877353407098624 515382 435279 437112 182341
830877353425291136 515325 435205 437039 182273
830877353443483520 515294 435119 436938 182316
830877353461676032 515219 435123 436899 182327
830877353479868544 515251 435039 436914 182321
830877353498061056 515298 435080 436968 182316
830877353516253440 515296 435047 436965 182343
830877353534445952 515409 435046 436974 182296
830877353552638464 515369 435059 437103 182276
830877353570830976 515446 435134 437181 182291
830877353589023360 515606 435166 437226 182320
830877353607215872 515648 435209 437356 182321
830877353625408384 515794 435300 437408 182303
830877353643600896 516001 435377 437537 182305
830877353661793280 516117 435418 437606 182241
830877353679985792 516314 435537 437818 182336
830877353698178304 516436 435607 437832 182331
830877353716370816 516574 435625 437972 182361
830877353734563328 516726 435769 438156 182332
830877353752755694 516903 435828 438246 182309
830877353770949248 517103 435927 438327 182343
830877353789142784 517258 436021 438410 182332
830877353807336320 517381 436111 438561 182316
830877353825529856 517544 436205 438685 182325
830877353843723392 517705 436353 438867 182364
830877353861916928 517979 436419 439006 182308
830877353880110336 517986 436446 439029 182283
830877353898303872 517673 436288 438730 182361
830877353916497408 517115 435926 438281 182306
830877353934690944 516432 435494 437685 182334
830877353952884480 515707 434967 437069 182350
830877353971078016 515050 434483 436466 182353
830877353989271552 514403 434007 435938 182236
830877354007465088 513975 433705 435501 182255
830877354025658624 513606 433337 435170 182266
830877354043852160 513249 433099 434936 182223
830877354062045568 513037 432930 434731 182274
830877354080239104 512745 432710 434491 182246
830877354098432640 512584 432467 434352 182280
830877354116626176 512417 432357 434223 182278
830877354134819712 512298 432272 434077 182218
830877354153013248 512239 432208 434012 182253
830877354171206784 512153 432148 433992 182269
830877354189400320 512077 432049 433865 182258
830877354207593856 511980 432000 433876 182299
830877354225787392 511930 431891 433732 182245
830877354243980928 511923 431856 433718 182290
830877354262174336 511838 431817 433720 182307
830877354280367872 511721 431735 433619 182264
830877354298561408 511734 431733 433593 182257
830877354316754944 511791 431800 433603 182263
830877354334948480 511812 431747 433641 182314
830877354353142016 511871 431781 433700 182248
830877354371335552 511944 431810 433776 182242
830877354389529027 512038 431875 433815 182282
830877354407722112 512173 431988 433976 182323
830877354425915136 512311 432049 434158 182334
830877354444108288 512432 432128 434215 182262
830877354462301312 512542 432231 434335 182350
830877354480494464 512747 432333 434429 182339
830877354498687488 512895 432355 434573 182352
830877354516880640 513016 432502 434705 182316
830877354535073664 513215 432597 434834 182306
830877354553266816 513378 432681 434968 182272
830877354571459840 513624 432864 435186 182301
830877354589652992 513847 433008 435344 182318
830877354607846016 514043 433092 435445 182348
830877354626039168 514168 433145 435571 182306
830877354644232192 514363 433311 435692 182278
830877354662425344 514568 433402 435919 182308
830877354680618368 514812 433551 436060 182315
830877354698811520 514980 433627 436148 182302
830877354717004544 515146 433809 436359 182297
830877354735197696 515270 433939 436501 182268
830877354753390720 515540 434153 436697 182297
830877354771583872 515621 434126 436768 182286
830877354789776896 515414 433976 436572 182257
830877354807970048 515041 433709 436131 182279
830877354826163072 514438 433315 435552 182265
830877354844356224 513774 432860 435006 182344
830877354862549248 513183 432453 434438 182296
830877354880742400 512643 432067 433957 182298
830877354898935424 512191 431589 433543 182287
830877354917128576 511766 431328 433182 182253
830877354935321600 511489 431093 432951 182335
830877354953514752 511321 430992 432883 182304
830877354971707776 511128 430807 432665 182269
830877354989900928 511035 430745 432515 182320
830877355008093952 510972 430755 432512 182300
830877355026287100 510906 430663 432490 182298
830877355044480384 510885 430682 432486 182274
830877355062673664 510881 430663 432468 182326
830877355080866944 510848 430585 432402 182332
830877355099060352 510774 430564 432393 182329
830877355117253632 510768 430547 432350 182246
830877355135446912 510703 430530 432304 182252
830877355153640192 510671 430437 432241 182247
830877355171833472 510605 430444 432255 182237
830877355190026880 510678 430482 432258 182281
830877355208220160 510687 430464 432297 182259
830877355226413440 510797 430512 432375 182246
830877355244606720 510924 430595 432494 182297
830877355262800000 510988 430620 432559 182242
830877355280993408 511115 430753 432628 182301
830877355299186688 511285 430877 432785 182320
830877355317379968 511405 430945 432887 182332
830877355335573248 511545 431045 433027 182304
830877355353766528 511762 431103 433154 182238
830877355371959936 511946 431224 433325 182276
830877355390153216 512172 431399 433476 182297
830877355408346496 512284 431556 433598 182213
830877355426539776 512491 431630 433758 182287
830877355444733056 512748 431807 433913 182330
830877355462926464 512904 431895 434136 182290
830877355481119744 513048 432060 434200 182293
830877355499313024 513261 432205 434411 182289
830877355517506304 513525 432402 434602 182287
830877355535699584 513731 432494 434796 182255
830877355553892992 513885 432603 434866 182290
830877355572086272 514121 432780 435070 182280
830877355590279552 514385 432871 435269 182258
830877355608472832 514590 433023 435384 182299
830877355626666112 514679 433135 435464 182279
830877355644859520 514567 433067 435321 182370
830877355663052800 514185 432849 434908 182280
830877355681246080 513587 432464 434449 182218
830877355699439360 513147 432082 433928 182255
830877355717632640 512614 431699 433480 182265
830877355735826048 512223 431414 433065 182292
830877355754019328 511809 431059 432769 182254
830877355772214144 511554 430853 432503 182249
830877355790408960 511368 430680 432363 182274
830877355808603776 511351 430611 432336 182274
830877355826798592 511214 430514 432265 182255
830877355844993408 511246 430557 432211 182303
830877355863188352 511346 430499 432261 182288
830877355881383168 511439 430542 432327 182349
830877355899577984 511445 430608 432394 182275
830877355917772800 511539 430640 432463 182279
830877355935967616 511597 430714 432457 182276
830877355954162432 511611 430689 432447 182246
830877355972357248 511639 430665 432493 182252
830877355990552064 511640 430688 432436 182266
830877356008747008 511695 430727 432451 182283
830877356026941824 511708 430757 432451 182270
830877356045136640 511725 430709 432515 182198
830877356063331456 511814 430808 432559 182261
830877356081526272 511919 430801 432638 182307
830877356099721088 512072 430951 432759 182280
830877356117915904 512189 431004 432804 182223
830877356136110720 512417 431189 433051 182299
830877356154305664 512596 431294 433187 182291
830877356172500480 512832 431393 433310 182249
830877356190695296 513033 431588 433492 182288
830877356208890112 513265 431739 433653 182296
830877356227084928 513470 431927 433833 182327
830877356245279744 513674 432010 433957 182247
830877356263474560 513873 432088 434113 182310
830877356281669376 514097 432246 434350 182253
830877356299864192 514270 432427 434519 182248
830877356318059136 514513 432621 434652 182279
830877356336253952 514764 432722 434859 182246
830877356354448768 514963 432872 435020 182278
830877356372643584 514944 432808 434979 182262
830877356390838400 514636 432610 434624 182246
830877356409033216 514167 432329 434212 182215
830877356427228032 513705 431997 433763 182233
830877356445422848 513218 431621 433235 182234
830877356463617749 512717 431228 432802 182245
830877356481810304 512281 431041 432495 182229
830877356500002816 512005 430740 432267 182327
830877356518195456 511724 430538 432078 182303
830877356536387968 511650 430362 431962 182287
830877356554580608 511545 430326 431882 182276
830877356572773120 511460 430270 431866 182256
830877356590965632 511541 430252 431889 182288
830877356609158272 511597 430262 431891 182251
830877356627350784 511625 430293 432013 182246
830877356645543424 511679 430354 432065 182189
830877356663735936 511750 430369 432057 182215
830877356681928448 511811 430465 432104 182289
830877356700121088 511813 430440 432120 182271
830877356718313600 511827 430546 432171 182257
830877356736506112 511862 430438 432176 182281
830877356754698752 511915 430473 432156 182264
830877356772891264 511951 430508 432164 182316
830877356791083904 512072 430556 432276 182305
830877356809276416 512254 430618 432421 182377
830877356827468928 512321 430692 432527 182343
830877356845661568 512444 430806 432687 182329
830877356863854080 512683 430940 432842 182315
830877356882046720 512772 431036 432927 182250
830877356900239232 512934 431197 433141 182201
830877356918431744 513237 431393 433340 182285
830877356936624384 513428 431534 433404 182247
830877356954816896 513624 431686 433665 182237
830877356973009536 513893 431756 433807 182229
830877356991202048 514102 431911 433952 182261
830877357009394560 514360 432118 434225 182269
830877357027587200 514622 432299 434395 182332
830877357045779712 514699 432300 434492 182286
830877357063972352 514608 432303 434390 182292
830877357082164864 514267 432110 434079 182292
830877357100357376 513808 431823 433643 182302
830877357118550016 513241 431368 433116 182282
830877357136742528 512667 431024 432666 182281
830877357154935168 512213 430637 432186 182284
830877357173127678 511849 430388 431882 182275
830877357191320960 511507 430106 431619 182252
830877357209514240 511326 429999 431485 182263
830877357227707520 511172 429868 431396 182245
830877357245900928 511038 429702 431303 182244
830877357264094208 511040 429682 431241 182314
830877357282287488 510987 429696 431212 182273
830877357300480768 510980 429719 431250 182291
830877357318674048 511009 429709 431333 182302
830877357336867456 511120 429736 431403 182229
830877357355060736 511158 429818 431483 182259
830877357373254016 511292 429848 431535 182275
830877357391447296 511358 429848 431610 182295
830877357409640576 511401 429931 431719 182256
830877357427833984 511400 429931 431745 182231
830877357446027264 511445 430031 431783 182240
830877357464220544 511630 430120 431863 182289
830877357482413824 511679 430149 432037 182263
830877357500607104 511824 430284 432144 182223
830877357518800512 512014 430394 432265 182250
830877357536993792 512109 430536 432392 182234
830877357555187072 512342 430652 432554 182234
830877357573380352 512582 430864 432781 182280
830877357591573632 512754 430960 432915 182214
830877357609767040 513048 431175 433144 182262
830877357627960320 513264 431350 433419 182250
830877357646153600 513459 431520 433601 182217
830877357664346880 513794 431637 433829 182269
830877357682540160 513992 431862 433999 182265
830877357700733568 514235 432052 434286 182298
830877357718926848 514520 432242 434551 182261
830877357737120128 514746 432299 434663 182275
830877357755313408 514671 432354 434533 182234
830877357773506688 514373 432188 434264 182296
830877357791700096 513924 431915 433893 182310
830877357809893376 513427 431567 433442 182253
830877357828086656 512837 431186 432955 182278
830877357846279936 512448 430874 432641 182320
830877357864473216 512009 430562 432255 182263
830877357882666624 511836 430427 432045 182242
830877357900859906 511630 430257 431903 182253
830877357919053184 511482 430112 431819 182200
830877357937246464 511333 430073 431783 182268
830877357955439744 511304 430113 431762 182251
830877357973633152 511269 430062 431796 182236
830877357991826432 511311 430050 431824 182279
830877358010019712 511342 430146 431922 182276
830877358028212992 511495 430218 431995 182303
830877358046406272 511650 430288 432103 182284
830877358064599680 511670 430331 432134 182241
830877358082792960 511761 430346 432264 182241
830877358100986240 511851 430464 432303 182255
830877358119179520 512029 430560 432476 182301
830877358137372800 512106 430663 432594 182221
830877358155566208 512217 430764 432735 182270
830877358173759488 512387 430841 432818 182312
830877358191952768 512598 431005 432928 182314
830877358210146048 512831 431129 433172 182324
830877358228339328 512980 431262 433234 182280
830877358246532736 513086 431432 433444 182255
830877358264726016 513333 431541 433647 182250
830877358282919296 513559 431704 433893 182276
830877358301112576 513912 431903 434115 182304
830877358319305856 514130 432077 434351 182307
830877358337499264 514477 432336 434605 182351
830877358355692544 514717 432534 434845 182332
830877358373885824 514970 432784 435062 182309
830877358392079104 515270 432961 435248 182322
830877358410272384 515504 433155 435563 182358
830877358428465792 515850 433400 435846 182353
830877358446659072 516072 433501 436033 182287
830877358464852352 516317 433692 436228 182249
830877358483045632 516722 433993 436568 182344
830877358501239040 517003 434212 436818 182310
830877358519432320 517300 434384 437034 182334
830877358537625600 517553 434578 437245 182244
830877358555818880 517706 434664 437429 182306
830877358574012160 517494 434572 437251 182303
830877358592205568 517132 434336 436868 182264
830877358610398848 516691 434049 436483 182271
830877358628592128 516222 433692 436030 182313
830877358646785408 515777 433349 435646 182324
830877358664978758 515396 433125 435317 182293
830877358683172096 515082 432887 435037 182282
830877358701365376 514968 432761 434918 182251
830877358719558528 514796 432653 434832 182255
830877358737751808 514783 432562 434784 182247
830877358755945088 514722 432526 434723 182302
830877358774138240 514733 432621 434743 182349
830877358792331520 514845 432617 434818 182288
830877358810524672 514924 432698 434937 182329
830877358828717952 514953 432752 435004 182255
830877358846911232 515099 432890 435187 182315
830877358865104384 515221 433005 435220 182188
830877358883297664 515346 433059 435374 182264
830877358901490944 515461 433122 435403 182269
830877358919684096 515501 433174 435517 182207
830877358937877376 515711 433281 435625 182304
830877358956070528 515861 433416 435735 182309
830877358974263808 515966 433493 435844 182271
830877358992457088 516202 433600 436015 182257
830877359010650240 516286 433749 436183 182263
830877359028843520 516559 433837 436340 182280
830877359047036800 516661 434031 436516 182262
830877359065229952 516928 434238 436766 182265
830877359083423232 517151 434303 436964 182295
830877359101616512 517421 434521 437200 182326
830877359119809664 517742 434697 437397 182319
830877359138002944 517985 434908 437663 182317
830877359156196096 518267 435110 437940 182282
830877359174389376 518576 435329 438182 182269
830877359192582656 518854 435547 438442 182253
830877359210775808 519149 435712 438630 182286
830877359228969088 519443 435929 438893 182306
830877359247162368 519742 436234 439133 182360
830877359265355520 520030 436356 439444 182276
830877359283548800 520373 436513 439695 182321
830877359301742080 520620 436727 439932 182232
830877359319935232 520949 436949 440214 182276
830877359338128512 521253 437215 440480 182300
830877359356321664 521528 437411 440729 182339
830877359374514944 521815 437621 440997 182316
830877359392708224 522155 437802 441247 182327
830877359410901376 522400 438066 441462 182312
830877359429094544 522737 438282 441758 182340
830877359447285632 522948 438475 441886 182308
830877359465476736 523029 438523 441975 182338
830877359483667712 522788 438332 441673 182339
830877359501858816 522360 438105 441312 182306
830877359520049792 521912 437791 440922 182309
830877359538240896 521562 437569 440595 182366
830877359556432000 521210 437329 440266 182326
830877359574622976 520888 437076 439993 182332
830877359592814080 520697 436914 439799 182309
830877359611005056 520586 436828 439740 182293
830877359629196160 520529 436823 439680 182305
830877359647387264 520529 436818 439719 182271
830877359665578240 520579 436848 439700 182268
830877359683769344 520631 436879 439753 182303
830877359701960320 520670 436904 439881 182310
830877359720151424 520839 437004 439985 182358
830877359738342528 520935 437073 440049 182312
830877359756533504 521133 437240 440239 182326
830877359774724608 521232 437314 440307 182347
830877359792915584 521298 437365 440406 182353
830877359811106688 521462 437412 440520 182370
830877359829297792 521553 437541 440624 182264
830877359847488768 521695 437625 440708 182356
830877359865679872 521837 437667 440806 182350
830877359883870848 521973 437806 440934 182353
830877359902061952 522169 437941 441103 182390
830877359920253056 522338 438072 441305 182350
830877359938444032 522487 438224 441383 182325
830877359956635136 522718 438366 441571 182329
830877359974826112 522929 438538 441740 182335
830877359993017216 523166 438646 441896 182342
830877360011208320 523378 438841 442138 182340
830877360029399296 523619 439093 442355 182334
830877360047590400 523902 439202 442606 182348
830877360065781376 524172 439435 442776 182286
830877360083972480 524437 439675 443005 182298
830877360102163584 524792 439867 443315 182347
830877360120354560 525002 440047 443570 182275
830877360138545664 525335 440257 443818 182308
830877360156736768 525637 440470 444024 182336
830877360174927744 525873 440619 444271 182297
830877360193118776 526175 440813 444529 182293
830877360211311488 526480 441071 444752 182352
830877360229504256 526736 441331 445017 182391
830877360247696896 527009 441514 445194 182355
830877360265889664 527353 441676 445455 182344
830877360284082432 527645 441888 445651 182272
830877360302275072 527975 442115 445914 182329
830877360320467840 528278 442319 446169 182349
830877360338660608 528607 442516 446411 182383
830877360356853248 528689 442635 446548 182314
830877360375046016 528674 442628 446486 182373
830877360393238784 528503 442550 446264 182305
830877360411431424 528217 442371 446058 182334
830877360429624192 527900 442097 445659 182337
830877360447816960 527623 441927 445481 182348
830877360466009600 527331 441734 445146 182352
830877360484202368 527136 441519 444959 182320
830877360502395136 527066 441490 444978 182342
830877360520587776 526990 441460 444874 182326
830877360538780544 527021 441483 444874 182337
830877360556973312 527106 441558 444995 182382
830877360575165952 527137 441582 445052 182332
830877360593358720 527339 441675 445189 182352
830877360611551488 527474 441757 445326 182324
830877360629744128 527601 441953 445480 182339
830877360647936896 527754 442046 445626 182334
830877360666129536 527821 442127 445707 182348
830877360684322304 528019 442235 445826 182333
830877360702515072 528155 442333 445882 182325
830877360720707712 528300 442384 446001 182366
830877360738900480 528429 442539 446087 182317
830877360757093248 528555 442649 446210 182289
830877360775285888 528720 442722 446267 182383
830877360793478656 528793 442790 446383 182326
830877360811671424 528911 442877 446517 182338
830877360829864064 529083 442982 446656 182295
830877360848056832 529352 443102 446835 182278
830877360866249600 529540 443251 447014 182310
830877360884442240 529808 443478 447225 182331
830877360902635008 530019 443597 447357 182358
830877360920827776 530205 443778 447589 182314
830877360939020416 530459 443961 447785 182355
830877360957213200 530714 444196 448055 182373
830877360975407232 530988 444336 448176 182327
830877360993601280 531224 444469 448433 182368
830877361011795328 531455 444676 448647 182344
830877361029989376 531740 444838 448773 182339
830877361048183424 532021 445014 448967 182347
830877361066377344 532295 445164 449188 182321
830877361084571392 532551 445407 449458 182356
830877361102765440 532825 445538 449650 182357
830877361120959488 533163 445769 449917 182379
830877361139153536 533401 445957 450112 182370
830877361157347584 533658 446161 450377 182383
830877361175541632 533928 446367 450586 182377
830877361193735680 534134 446522 450699 182378
830877361211929600 534197 446600 450771 182400
830877361230123648 534133 446613 450664 182386
830877361248317696 533848 446413 450424 182300
830877361266511744 533630 446296 450170 182355
830877361284705792 533362 446088 449908 182404
830877361302899840 533057 445895 449672 182319
830877361321093888 532837 445760 449460 182325
830877361339287936 532655 445652 449300 182246
830877361357481856 532640 445634 449265 182350
830877361375675904 532709 445590 449208 182330
830877361393869952 532660 445602 449252 182306
830877361412064000 532794 445772 449368 182302
830877361430258048 532991 445862 449522 182394
830877361448452096 533131 446034 449655 182419
830877361466646144 533224 446078 449789 182350
830877361484840192 533473 446199 449940 182433
830877361503034112 533563 446375 450060 182388
830877361521228160 533712 446431 450129 182364
830877361539422208 533872 446567 450251 182366
830877361557616256 533949 446619 450247 182336
830877361575810304 534075 446697 450339 182331
830877361594004352 534124 446764 450443 182342
830877361612198400 534270 446906 450576 182418
830877361630392448 534376 446948 450643 182386
830877361648586368 534482 447072 450746 182346
830877361666780416 534678 447182 450867 182371
830877361684974464 534798 447218 451071 182364
830877361703168512 535007 447347 451158 182358
830877361721362556 535248 447560 451351 182399
830877361739555456 535389 447653 451426 182353
830877361757748352 535603 447808 451619 182343
830877361775941376 535788 448001 451847 182376
830877361794134272 536036 448099 451924 182352
830877361812327168 536207 448314 452220 182395
830877361830520192 536492 448415 452447 182404
830877361848713088 536689 448647 452559 182409
830877361866906112 536933 448748 452697 182372
830877361885099008 537231 448899 452949 182405
830877361903291904 537427 449134 453097 182395
830877361921484928 537537 449253 453185 182406
830877361939677824 537483 449272 453132 182390
830877361957870720 537246 449181 452925 182389
830877361976063744 536928 449011 452672 182411
830877361994256640 536528 448743 452391 182360
830877362012449536 536173 448564 452022 182394
830877362030642560 535835 448359 451708 182392
830877362048835456 535499 448151 451482 182396
830877362067028480 535329 448083 451417 182391
830877362085221376 535178 447997 451253 182347
830877362103414272 535066 447931 451192 182356
830877362121607296 535081 447966 451195 182376
830877362139800192 535074 447999 451238 182369
830877362157993088 535119 448063 451308 182335
830877362176186112 535230 448116 451395 182340
830877362194379008 535305 448150 451470 182398
830877362212571904 535357 448273 451589 182372
830877362230764928 535479 448287 451561 182352
830877362248957824 535511 448338 451679 182367
830877362267150720 535542 448340 451720 182377
830877362285343744 535550 448405 451744 182335
830877362303536640 535584 448467 451755 182373
830877362321729664 535594 448519 451842 182331
830877362339922560 535664 448618 451907 182404
830877362358115456 535665 448649 451985 182368
830877362376308480 535767 448716 452098 182401
830877362394501376 535789 448833 452109 182394
830877362412694272 535914 448934 452188 182368
830877362430887296 535986 448959 452242 182392
830877362449080192 536151 449068 452396 182359
830877362467273088 536288 449258 452621 182358
830877362485466134 536489 449367 452733 182372
830877362503659776 536683 449406 452780 182360
830877362521853440 536839 449596 453021 182398
830877362540047232 537031 449728 453125 182410
830877362558240896 537213 449867 453274 182371
830877362576434688 537364 450008 453455 182350
830877362594628352 537487 450152 453541 182377
830877362612822144 537479 450103 453512 182358
830877362631015808 537124 449984 453368 182360
830877362649209472 536659 449763 453007 182347
830877362667403264 536226 449529 452665 182360
830877362685596928 535582 449195 452180 182297
830877362703790720 535025 448925 451700 182327
830877362721984384 534575 448711 451432 182372
830877362740178176 534192 448506 451156 182338
830877362758371840 533858 448365 450898 182350
830877362776565504 533553 448232 450764 182316
830877362794759296 533401 448167 450609 182361
830877362812952960 533218 448134 450598 182381
830877362831146752 533089 448059 450522 182438
830877362849340416 533052 448125 450535 182375
830877362867534080 532988 448084 450536 182387
830877362885727872 532959 448078 450484 182376
830877362903921536 532921 448118 450525 182396
830877362922115328 532888 448135 450491 182389
830877362940308992 532805 448158 450484 182349
830877362958502784 532768 448211 450501 182350
830877362976696448 532719 448254 450512 182361
830877362994890112 532650 448173 450477 182332
830877363013083904 532653 448239 450553 182354
830877363031277568 532557 448244 450572 182378
830877363049471360 532530 448251 450605 182382
830877363067665024 532490 448292 450655 182369
830877363085858816 532482 448364 450724 182296
830877363104052480 532620 448455 450736 182364
830877363122246144 532676 448493 450815 182367
830877363140439936 532778 448612 450891 182357
830877363158633707 532844 448625 451021 182377
830877363176826112 532971 448819 451177 182409
830877363195018496 533064 448877 451260 182399
830877363213211008 533193 449040 451443 182364
830877363231403392 533266 449092 451493 182385
830877363249595904 533176 449097 451530 182352
830877363267788288 532829 448944 451277 182404
830877363285980800 532261 448698 450913 182412
830877363304173184 531524 448362 450367 182391
830877363322365696 530814 448089 449906 182351
830877363340558080 530078 447788 449349 182385
830877363358750592 529492 447450 449024 182336
830877363376942976 528911 447264 448609 182339
830877363395135488 528461 446997 448326 182332
830877363413327872 528175 446849 448121 182384
830877363431520384 527841 446668 448002 182370
830877363449712768 527602 446570 447850 182339
830877363467905280 527403 446526 447764 182302
830877363486097664 527330 446521 447741 182301
830877363504290176 527175 446470 447688 182373
830877363522482560 527128 446529 447638 182388
830877363540675072 527014 446589 447646 182364
830877363558867456 526875 446543 447632 182381
830877363577059840 526774 446537 447561 182382
830877363595252352 526643 446536 447478 182346
830877363613444736 526536 446535 447559 182405
830877363631637248 526442 446534 447462 182348
830877363649829632 526389 446494 447471 182409
830877363668022144 526276 446516 447473 182335
830877363686214528 526212 446554 447424 182351
830877363704407040 526196 446560 447559 182367
830877363722599424 526158 446607 447589 182330
830877363740791936 526162 446658 447614 182323
830877363758984320 526202 446716 447639 182344
830877363777176832 526286 446826 447731 182325
830877363795369216 526390 446967 447924 182413
830877363813561728 526346 446962 447956 182355
830877363831754112 526511 447136 448108 182389
830877363849946624 526609 447132 448178 182343
830877363868139062 526801 447259 448332 182356
830877363886334976 526907 447395 448483 182313
830877363904530944 526911 447486 448598 182349
830877363922726784 526801 447520 448550 182398
830877363940922752 526336 447287 448156 182413
830877363959118720 525628 447012 447706 182454
830877363977314560 524849 446694 447171 182432
830877363995510528 524008 446286 446667 182439
830877364013706496 523246 445892 446157 182390
830877364031902336 522567 445633 445652 182372
830877364050098304 521927 445255 445315 182348
830877364068294272 521502 445018 444995 182368
830877364086490112 521083 444877 444781 182289
830877364104686080 520778 444768 444574 182331
830877364122882048 520551 444620 444484 182344
830877364141078016 520346 444513 444344 182366
830877364159273856 520252 444523 444333 182322
830877364177469824 520167 444526 444348 182333
830877364195665792 519928 444395 444242 182339
830877364213861632 519962 444411 444230 182334
830877364232057600 519802 444366 444205 182285
830877364250253568 519738 444384 444141 182394
830877364268449408 519616 444365 444097 182321
830877364286645376 519551 444309 444049 182337
830877364304841344 519434 444318 444113 182296
830877364323037184 519408 444312 444069 182351
830877364341233152 519351 444360 444063 182317
830877364359429120 519326 444380 444108 182334
830877364377624960 519302 444372 444128 182335
830877364395820928 519356 444417 444175 182381
830877364414016896 519436 444453 444294 182370
830877364432212736 519438 444517 444332 182395
830877364450408704 519534 444554 444413 182334
830877364468604672 519622 444622 444532 182347
830877364486800512 519762 444749 444604 182335
830877364504996480 519851 444868 444745 182382
830877364523192448 519990 444933 444876 182352
830877364541388288 520186 445115 445063 182392
830877364559584256 520286 445260 445243 182335
830877364577780219 520400 445311 445338 182366
830877364595974144 520605 445400 445503 182372
830877364614168064 520753 445468 445564 182358
830877364632361984 520879 445641 445692 182337
830877364650555904 521043 445734 445830 182352
830877364668749824 521129 445847 445985 182289
830877364686943744 521337 445988 446194 182364
830877364705137536 521504 446109 446309 182374
830877364723331456 521431 446090 446298 182278
830877364741525376 521020 446008 446103 182334
830877364759719296 520301 445702 445642 182382
830877364777913216 519514 445281 444992 182344
830877364796107136 518719 444893 444430 182291
830877364814301056 517913 444498 443913 182358
830877364832494976 517218 444154 443375 182302
830877364850688896 516670 443830 442994 182312
830877364868882816 516214 443560 442648 182270
830877364887076736 515914 443336 442535 182284
830877364905270528 515714 443221 442347 182308
830877364923464448 515556 443126 442295 182321
830877364941658368 515411 443014 442167 182342
830877364959852288 515373 443021 442172 182410
830877364978046208 515339 443047 442142 182355
830877364996240128 515299 442921 442108 182365
830877365014434048 515288 442977 442162 182422
830877365032627968 515229 442915 442080 182320
830877365050821888 515163 442893 442031 182317
830877365069015808 515086 442894 442055 182272
830877365087209600 515011 442871 442051 182310
830877365105403520 515024 442792 442032 182327
830877365123597440 514971 442785 441973 182324
830877365141791360 515015 442788 442025 182309
830877365159985280 514973 442812 442004 182331
830877365178179200 514981 442867 442067 182357
830877365196373120 515051 442837 442099 182342
830877365214567040 515146 442914 442182 182314
830877365232760960 515266 442962 442290 182287
830877365250954880 515363 442971 442399 182308
830877365269148725 515480 443088 442456 182290
830877365287341952 515721 443244 442661 182332
830877365305535232 515840 443354 442756 182315
830877365323728512 515987 443426 442877 182288
830877365341921920 516225 443554 443082 182355
830877365360115200 516433 443723 443218 182346
830877365378308480 516620 443816 443403 182326
830877365396501760 516842 443913 443517 182315
830877365414695040 517049 443976 443699 182364
830877365432888448 517226 444167 443887 182296
830877365451081728 517415 444218 444029 182317
830877365469275008 517598 444346 444173 182385
830877365487468288 517819 444495 444281 182360
830877365505661568 518055 444585 444491 182375
830877365523854976 518230 444687 444706 182358
830877365542048256 518387 444831 444853 182371
830877365560241536 518605 444996 444929 182375
830877365578434816 518447 444980 444854 182316
830877365596628096 517975 444699 444565 182325
830877365614821504 517321 444426 444085 182322
830877365633014784 516592 444032 443472 182344
830877365651208064 515830 443615 442974 182341
830877365669401344 515162 443240 442436 182351
830877365687594624 514608 442879 441970 182291
830877365705788032 514176 442660 441693 182347
830877365723981312 513888 442474 441427 182390
830877365742174592 513711 442266 441224 182327
830877365760367872 513506 442133 441063 182322
830877365778561152 513418 442035 440985 182369
830877365796754560 513374 441949 440965 182346
830877365814947840 513387 441878 440922 182320
830877365833141120 513408 441886 440948 182330
830877365851334400 513425 441874 440944 182357
830877365869527680 513470 441904 441014 182333
830877365887721088 513458 441850 440942 182349
830877365905914368 513465 441870 441037 182324
830877365924107648 513449 441902 441009 182340
830877365942301038 513473 441845 440919 182308
830877365960493568 513518 441818 440953 182314
830877365978686080 513553 441833 440946 182357
830877365996878720 513560 441785 440993 182275
830877366015071232 513605 441833 441020 182250
830877366033263872 513808 441890 441087 182303
830877366051456384 513842 441935 441146 182285
830877366069648896 514060 442039 441263 182350
830877366087841536 514181 442035 441387 182322
830877366106034048 514352 442127 441480 182289
830877366124226688 514570 442234 441639 182343
830877366142419200 514730 442365 441779 182353
830877366160611712 514951 442444 441935 182326
830877366178804352 515223 442571 442124 182396
830877366196996864 515382 442610 442268 182342
830877366215189376 515658 442738 442393 182302
830877366233382016 515906 442955 442632 182359
830877366251574528 516132 443024 442725 182300
830877366269767168 516389 443223 442971 182384
830877366287959680 516642 443314 443186 182313
830877366306152192 516830 443452 443338 182310
830877366324344832 517144 443621 443540 182281
830877366342537344 517382 443730 443720 182298
830877366360729984 517620 443882 443823 182381
830877366378922496 517855 444002 444025 182346
830877366397115008 518122 444112 444208 182312
830877366415307648 518302 444305 444363 182343
830877366433500160 518552 444452 444550 182354
830877366451692800 518731 444521 444650 182339
830877366469885312 518555 444493 444574 182354
830877366488077824 518144 444271 444177 182351
830877366506270464 517581 443954 443714 182306
830877366524462976 516959 443592 443145 182292
830877366542655488 516405 443205 442688 182351
830877366560848128 515759 442851 442108 182286
830877366579040640 515323 442544 441770 182295
830877366597233280 514967 442304 441528 182317
830877366615425792 514727 442101 441310 182308
830877366633618304 514613 441888 441212 182298
830877366651810953 514514 441776 441041 182308
830877366670002688 514504 441748 441062 182332
830877366688194432 514583 441780 441083 182323
830877366706386304 514637 441790 441089 182286
830877366724578048 514728 441766 441140 182309
830877366742769792 514800 441777 441170 182308
830877366760961536 514853 441775 441147 182299
830877366779153408 514865 441779 441152 182350
830877366797345152 514887 441796 441144 182298
830877366815536896 514976 441795 441194 182327
830877366833728768 515017 441726 441156 182326
830877366851920512 515046 441728 441195 182308
830877366870112256 515108 441737 441203 182256
830877366888304000 515101 441704 441195 182266
830877366906495872 515263 441783 441285 182293
830877366924687616 515389 441831 441301 182318
830877366942879360 515558 441874 441436 182312
830877366961071232 515810 441937 441543 182338
830877366979262976 515984 442018 441637 182354
830877366997454720 516181 442161 441714 182354
830877367015646464 516376 442148 441824 182336
830877367033838336 516519 442297 441973 182264
830877367052030080 516778 442402 442171 182281
830877367070221824 516896 442460 442303 182283
830877367088413568 517170 442609 442442 182323
830877367106605440 517427 442688 442618 182332
830877367124797184 517655 442809 442762 182282
830877367142988928 517967 442973 442953 182327
830877367161180800 518154 443128 443159 182310
830877367179372544 518384 443224 443308 182337
830877367197564288 518572 443386 443464 182309
830877367215756032 518891 443494 443604 182346
830877367233947904 519112 443609 443769 182357
830877367252139648 519339 443752 443946 182316
830877367270331392 519606 443833 444113 182368
830877367288523264 519874 443972 444260 182417
830877367306715008 519948 444074 444353 182366
830877367324906752 519815 444004 444212 182366
830877367343098496 519502 443781 443870 182348
830877367361290368 519011 443491 443417 182318
830877367379482112 518506 443172 443064 182327
830877367397673940 518021 442802 442521 182312
830877367415867264 517659 442545 442219 182321
830877367434060544 517319 442239 441904 182339
830877367452253824 517102 442025 441707 182320
830877367470447232 516979 441939 441615 182278
830877367488640512 517004 441860 441560 182310
830877367506833792 517030 441801 441477 182330
830877367525027072 517153 441821 441619 182343
830877367543220352 517244 441799 441638 182304
830877367561413760 517352 441927 441701 182339
830877367579607040 517483 441945 441805 182309
830877367597800320 517596 441931 441863 182359
830877367615993600 517666 441972 441865 182320
830877367634186880 517747 441935 441913 182313
830877367652380288 517820 441981 441880 182320
830877367670573568 517838 441964 441915 182325
830877367688766848 518002 441989 441916 182383
830877367706960128 517983 441999 441930 182340
830877367725153408 518027 442031 441973 182399
830877367743346816 518116 442019 441978 182343
830877367761540096 518278 442041 442089 182327
830877367779733376 518384 442092 442137 182317
830877367797926656 518556 442148 442244 182286
830877367816119936 518704 442196 442343 182258
830877367834313344 518926 442333 442546 182337
830877367852506624 519163 442387 442640 182351
830877367870699904 519380 442424 442776 182301
830877367888893184 519601 442563 442902 182289
830877367907086464 519804 442751 443054 182386
830877367925279872 520078 442846 443254 182321
830877367943473152 520342 442999 443445 182387
830877367961666432 520562 443171 443633 182366
830877367979859712 520793 443184 443712 182364
830877367998052992 521024 443317 443922 182293
830877368016246400 521291 443457 444116 182369
830877368034439680 521466 443609 444161 182396
830877368052632960 521505 443545 444202 182350
830877368070826240 521236 443448 443998 182350
830877368089019520 520789 443156 443503 182287
830877368107212928 520296 442818 443107 182316
830877368125406168 519843 442416 442645 182351
830877368143598720 519308 442082 442153 182288
830877368161791232 518966 441716 441749 182295
830877368179983744 518686 441498 441467 182315
830877368198176256 518440 441265 441241 182298
830877368216368768 518378 441129 441135 182351
830877368234561280 518328 441010 441089 182358
830877368252753920 518247 440909 441023 182343
830877368270946432 518287 440932 441019 182400
830877368289138944 518321 440862 441025 182339
830877368307331456 518445 440880 441099 182290
830877368325523968 518500 440900 441110 182344
830877368343716480 518595 440926 441125 182316
830877368361908992 518685 440914 441180 182389
830877368380101504 518678 440889 441208 182312
830877368398294016 518687 440883 441196 182320
830877368416486528 518747 440782 441163 182357
830877368434679040 518718 440778 441185 182340
830877368452871552 518867 440813 441160 182358
830877368471064192 518941 440832 441182 182390
830877368489256704 518962 440792 441180 182326
830877368507449216 519144 440875 441278 182364
830877368525641728 519284 440918 441398 182375
830877368543834240 519335 440918 441441 182361
830877368562026752 519436 440934 441499 182349
830877368580219264 519667 441020 441622 182378
830877368598411776 519860 441108 441722 182364
830877368616604288 519991 441196 441820 182348
830877368634796800 520229 441332 442004 182374
830877368652989312 520396 441366 442091 182343
830877368671181824 520624 441448 442274 182335
830877368689374464 520832 441609 442393 182338
830877368707566976 521049 441745 442567 182331
830877368725759488 521311 441823 442749 182373
830877368743952000 521262 441834 442700 182365
830877368762144512 521009 441609 442376 182338
830877368780337024 520515 441322 441978 182353
830877368798529536 520026 440916 441459 182322
830877368816722048 519550 440581 441020 182389
830877368834914559 519007 440134 440527 182330
830877368853106432 518580 439752 440091 182341
830877368871298304 518288 439472 439722 182329
830877368889490048 518059 439264 439575 182390
830877368907681920 517835 439013 439295 182343
830877368925873664 517720 438851 439151 182298
830877368944065536 517661 438773 439128 182319
830877368962257408 517605 438689 439041 182289
830877368980449152 517576 438553 438992 182276
830877368998641024 517626 438582 439014 182341
830877369016832768 517688 438584 439042 182286
830877369035024640 517656 438503 438953 182262
830877369053216384 517733 438491 439048 182366
830877369071408256 517730 438473 439008 182342
830877369089600128 517779 438411 438975 182340
830877369107791872 517741 438362 438980 182315
830877369125983744 517790 438298 438979 182326
830877369144175488 517834 438363 438998 182366
830877369162367360 517833 438344 439024 182357
830877369180559232 517905 438286 439039 182324
830877369198750976 517969 438347 439047 182309
830877369216942848 518059 438308 439091 182309
830877369235134592 518231 438365 439237 182333
830877369253326464 518369 438548 439408 182347
830877369271518208 518571 438555 439522 182360
830877369289710080 518649 438559 439579 182314
830877369307901952 518851 438695 439712 182369
830877369326093696 519010 438830 439855 182292
830877369344285568 519235 438998 440081 182314
830877369362477312 519410 439069 440173 182366
830877369380669184 519638 439188 440358 182420
830877369398861056 519807 439220 440441 182386
830877369417052800 519785 439223 440469 182302
830877369435244672 519521 439044 440162 182272
830877369453436416 519045 438703 439662 182305
830877369471628288 518585 438373 439260 182325
830877369489820032 518058 437906 438729 182355
830877369508011904 517615 437482 438294 182350
830877369526203776 517109 437090 437819 182319
830877369544395496 516712 436710 437541 182343
830877369562588032 516440 436480 437246 182312
830877369580780544 516205 436236 437021 182301
830877369598972928 516101 436107 436866 182281
830877369617165440 515959 435944 436705 182281
830877369635357952 515956 435867 436661 182248
830877369653550336 515967 435804 436698 182332
830877369671742848 516024 435757 436744 182331
830877369689935360 515977 435701 436720 182250
830877369708127744 515989 435711 436671 182246
830877369726320256 516051 435692 436691 182231
830877369744512640 516080 435701 436788 182287
830877369762705152 516085 435684 436752 182320
830877369780897664 516152 435657 436756 182280
830877369799090048 516138 435598 436715 182290
830877369817282560 516182 435633 436722 182240
830877369835475072 516291 435560 436786 182287
830877369853667456 516341 435609 436772 182290
830877369871859968 516476 435678 436950 182302
830877369890052480 516593 435713 437093 182255
830877369908244864 516705 435781 437124 182273
830877369926437376 516842 435800 437237 182246
830877369944629888 517044 435915 437419 182300
830877369962822272 517189 435966 437493 182274
830877369981014784 517409 436075 437665 182281
830877369999207168 517609 436169 437850 182254
830877370017399680 517783 436332 438037 182287
830877370035592192 518006 436510 438252 182350
830877370053784576 518171 436612 438338 182314
830877370071977088 518360 436771 438479 182353
830877370090169600 518577 436821 438640 182268
830877370108361984 518859 436984 438811 182315
830877370126554496 519056 437117 438987 182310
830877370144747008 519312 437267 439209 182265
830877370162939392 519503 437406 439448 182285
830877370181131904 519743 437570 439590 182290
830877370199324416 519759 437569 439600 182296
830877370217516800 519556 437483 439438 182297
830877370235709312 519187 437130 439066 182316
830877370253901696 518621 436732 438511 182299
830877370272094156 518162 436298 438009 182332
830877370290286080 517659 435796 437477 182354
830877370308477952 517167 435388 436955 182225
830877370326669824 516866 435050 436642 182266
830877370344861696 516557 434774 436367 182305
830877370363053440 516318 434537 436175 182285
830877370381245312 516147 434348 436086 182283
830877370399437184 516080 434270 435964 182281
830877370417629056 515977 434230 435865 182248
830877370435820928 516012 434180 435898 182257
830877370454012800 516016 434193 435882 182230
830877370472204672 516062 434165 435951 182268
830877370490396416 516100 434176 435964 182318
830877370508588288 516163 434126 435927 182301
830877370526780160 516169 434178 435944 182318
830877370544972032 516202 434110 436000 182332
830877370563163904 516269 434073 436041 182367
830877370581355776 516269 434062 436062 182278
830877370599547648 516335 434091 436071 182298
830877370617739392 516397 434129 436170 182325
830877370635931264 516478 434121 436162 182389
830877370654123136 516537 434166 436176 182322
830877370672315008 516689 434210 436288 182352
830877370690506880 516843 434278 436419 182347
830877370708698752 516895 434344 436507 182327
830877370726890624 517094 434485 436673 182329
830877370745082496 517296 434568 436786 182321
830877370763274240 517514 434676 436960 182361
830877370781466112 517677 434788 437102 182261
830877370799657984 517865 434913 437292 182332
830877370817849856 518128 435027 437480 182279
830877370836041728 518311 435130 437650 182301
830877370854233600 518549 435346 437875 182292
830877370872425472 518786 435473 438016 182344
830877370890617216 519025 435614 438237 182300
830877370908809088 519238 435754 438388 182341
830877370927000960 519453 435902 438569 182290
830877370945192832 519670 436013 438680 182298
830877370963384704 519921 436214 438943 182309
830877370981576576 520135 436375 439141 182306
830877370999768448 520418 436546 439342 182309
830877371017960177 520660 436663 439537 182323
830877371036153472 520928 436813 439766 182354
830877371054346752 520992 436842 439789 182343
830877371072540032 520885 436761 439659 182356
830877371090733312 520502 436488 439269 182317
830877371108926592 520106 436179 438794 182350
830877371127119744 519486 435708 438236 182358
830877371145313024 518925 435240 437701 182293
830877371163506304 518446 434824 437247 182275
830877371181699584 518038 434507 436846 182280
830877371199892864 517817 434174 436596 182310
830877371218086144 517581 433973 436317 182284
830877371236279424 517477 433855 436187 182284
830877371254472704 517395 433716 436044 182251
830877371272665856 517332 433678 436015 182253
830877371290859136 517310 433589 436063 182244
830877371309052416 517373 433578 436070 182312
830877371327245696 517395 433577 436083 182273
830877371345438976 517429 433566 436094 182251
830877371363632256 517481 433629 436131 182284
830877371381825536 517466 433639 436174 182295
830877371400018816 517564 433621 436268 182324
830877371418211968 517535 433636 436226 182250
830877371436405248 517560 433663 436233 182242
830877371454598528 517634 433624 436294 182264
830877371472791808 517741 433708 436330 182314
830877371490985088 517769 433705 436367 182280
830877371509178368 517844 433712 436462 182307
830877371527371648 517957 433697 436538 182310
830877371545564928 518103 433800 436648 182281
830877371563758208 518246 433939 436834 182270
830877371581951360 518366 433974 436923 182275
830877371600144640 518560 434084 437060 182251
830877371618337920 518806 434258 437304 182329
830877371636531200 518935 434352 437437 182264
830877371654724480 519237 434558 437604 182281
830877371672917760 519377 434599 437776 182336
830877371691110966 519614 434764 437932 182310
830877371709304192 519898 434959 438140 182347
830877371727497472 520122 435091 438306 182320
830877371745690752 520348 435254 438557 182310
830877371763884160 520612 435410 438742 182337
830877371782077440 520787 435540 438896 182273
830877371800270720 520996 435644 439083 182266
830877371818464000 521220 435795 439314 182335
830877371836657280 521524 435992 439479 182324
830877371854850688 521767 436097 439663 182321
830877371873043968 521968 436312 439878 182378
830877371891237248 522235 436505 440072 182317
830877371909430528 522492 436593 440235 182315
830877371927623808 522671 436752 440391 182313
830877371945817216 522748 436834 440448 182315
830877371964010496 522535 436641 440172 182295
830877371982203776 522129 436336 439781 182276
830877372000397056 521621 435912 439267 182265
830877372018590336 521007 435475 438717 182271
830877372036783744 520477 435096 438235 182236
830877372054977024 520211 434772 437904 182290
830877372073170304 519850 434470 437578 182296
830877372091363584 519657 434261 437372 182297
830877372109556864 519456 433989 437141 182230
830877372127750272 519305 433912 437052 182306
830877372145943552 519277 433874 437012 182287
830877372164136832 519297 433834 437023 182296
830877372182330112 519328 433756 436946 182284
830877372200523392 519354 433899 437114 182330
830877372218716800 519407 433842 437175 182287
830877372236910080 519541 433917 437216 182312
830877372255103360 519664 433975 437322 182332
830877372273296640 519616 433958 437282 182272
830877372291489920 519694 433999 437292 182284
830877372309683328 519769 434059 437380 182300
830877372327876608 519752 434135 437429 182303
830877372346069888 519810 434067 437472 182337
830877372364263168 519839 434041 437451 182331
830877372382456448 519945 434128 437597 182354
830877372400649889 520013 434190 437642 182269
830877372418842368 520141 434240 437811 182266
830877372437034880 520267 434306 437911 182217
830877372455227392 520407 434486 438057 182319
830877372473419904 520583 434584 438185 182306
830877372491612416 520796 434760 438354 182313
830877372509804928 520980 434885 438529 182313
830877372527997440 521213 435022 438664 182305
830877372546189824 521430 435162 438887 182384
830877372564382336 521654 435343 439088 182338
830877372582574848 521861 435504 439312 182344
830877372600767360 522150 435666 439487 182337
830877372618959872 522355 435771 439628 182302
830877372637152384 522639 435988 439875 182340
830877372655344896 522798 436090 439992 182340
830877372673537408 523070 436222 440230 182373
830877372691729920 523291 436408 440408 182373
830877372709922432 523475 436634 440615 182378
830877372728114944 523682 436692 440845 182323
830877372746307456 523959 436915 441058 182337
830877372764499968 524136 437055 441242 182320
830877372782692480 524443 437254 441412 182330
830877372800884864 524630 437428 441571 182342
830877372819077376 524656 437445 441595 182342
830877372837269888 524558 437432 441406 182338
830877372855462400 524173 437141 441059 182326
830877372873654912 523672 436775 440592 182368
830877372891847424 523185 436444 440119 182369
830877372910039936 522661 436054 439667 182386
830877372928232448 522249 435731 439317 182339
830877372946424960 521959 435456 439046 182334
830877372964617472 521714 435281 438889 182350
830877372982809984 521489 435102 438671 182305
830877373001002496 521357 434975 438565 182300
830877373019195008 521348 434993 438614 182377
830877373037387520 521365 434967 438640 182232
830877373055579904 521442 435044 438701 182280
830877373073772416 521485 435086 438786 182323
830877373091964989 521536 435205 438892 182302
830877373110157440 521621 435210 438935 182325
830877373128349952 521639 435311 438957 182296
830877373146542464 521726 435322 439037 182318
830877373164734976 521748 435369 439063 182325
830877373182927488 521818 435390 439086 182306
830877373201120000 521802 435424 439131 182305
830877373219312640 521819 435388 439122 182331
830877373237505152 521859 435408 439172 182329
830877373255697664 521916 435477 439257 182325
830877373273890176 521959 435545 439408 182360
830877373292082688 522034 435596 439504 182347
830877373310275200 522148 435730 439544 182355
830877373328467712 522271 435803 439684 182376
830877373346660224 522407 435935 439850 182406
830877373364852736 522595 436047 440027 182382
830877373383045248 522747 436148 440137 182367
830877373401237760 522902 436300 440294 182335
830877373419430272 523143 436479 440447 182320
830877373437622912 523359 436631 440635 182310
830877373455815424 523526 436780 440818 182337
830877373474007936 523741 436948 440935 182282
830877373492200448 523921 437058 441126 182335
830877373510392960 524049 437222 441291 182359
830877373528585472 524276 437341 441472 182350
830877373546777984 524533 437517 441648 182327
830877373564970496 524752 437685 441871 182304
830877373583163008 524948 437800 442026 182344
830877373601355520 525073 437924 442158 182284
830877373619548032 525106 437928 442179 182334
830877373637740672 524921 437884 441940 182322
830877373655933184 524462 437595 441598 182304
830877373674125696 523938 437194 441147 182289
830877373692318208 523399 436930 440629 182288
830877373710510720 522934 436582 440237 182372
830877373728703232 522466 436313 439908 182312
830877373746895744 522037 436020 439626 182340
830877373765088256 521766 435844 439431 182279
830877373783280768 521591 435671 439279 182319
830877373801473394 521484 435660 439291 182378
830877373819665792 521415 435590 439311 182365
830877373837858176 521434 435784 439348 182372
830877373856050688 521542 435803 439412 182383
830877373874243072 521586 435859 439439 182332
830877373892435584 521652 435882 439526 182340
830877373910627968 521688 435959 439632 182338
830877373928820480 521712 435984 439642 182309
830877373947012864 521681 436032 439652 182343
830877373965205376 521634 435983 439661 182366
830877373983397760 521613 436009 439706 182418
830877374001590272 521620 436089 439774 182395
830877374019782656 521564 436016 439704 182279
830877374037975168 521620 436068 439782 182316
830877374056167552 521654 436114 439795 182281
830877374074360064 521675 436188 439820 182339
830877374092552448 521792 436265 439960 182370
830877374110744960 521936 436409 440096 182368
830877374128937344 522023 436482 440236 182321
830877374147129856 522092 436490 440344 182303
830877374165322240 522245 436615 440435 182298
830877374183514752 522437 436725 440613 182375
830877374201707136 522618 436968 440800 182412
830877374219899520 522764 437103 440927 182334
830877374238092032 522903 437161 441037 182299
830877374256284416 523102 437338 441287 182295
830877374274476928 523279 437546 441482 182360
830877374292669312 523477 437660 441628 182319
830877374310861824 523660 437800 441827 182327
830877374329054208 523665 437772 441800 182300
830877374347246720 523365 437709 441560 182375
830877374365439104 522829 437352 441131 182348
830877374383631616 522144 437004 440617 182336
830877374401824000 521547 436663 440105 182317
830877374420016512 520828 436248 439594 182310
830877374438208896 520310 435876 439200 182334
830877374456401408 519894 435629 438932 182317
830877374474593792 519575 435381 438674 182323
830877374492786304 519272 435216 438475 182281
830877374510978745 519065 435177 438435 182338
830877374529169792 518935 435096 438304 182370
830877374547360896 518848 435044 438282 182290
830877374565552000 518816 435054 438345 182322
830877374583743104 518832 435088 438355 182322
830877374601934208 518831 435104 438362 182305
830877374620125312 518808 435127 438429 182261
830877374638316288 518755 435181 438445 182289
830877374656507392 518768 435202 438559 182351
830877374674698496 518648 435186 438524 182291
830877374692889600 518672 435233 438583 182390
830877374711080704 518566 435213 438601 182355
830877374729271808 518566 435210 438598 182379
830877374747462912 518611 435324 438677 182366
830877374765654016 518641 435361 438737 182341
830877374783845120 518609 435419 438798 182388
830877374802036224 518671 435525 438925 182340
830877374820227328 518817 435685 439011 182404
830877374838418432 518908 435715 439070 182343
830877374856609408 519039 435878 439248 182313
830877374874800512 519169 436010 439445 182323
830877374892991616 519286 436077 439568 182313
830877374911182720 519458 436223 439667 182309
830877374929373824 519583 436320 439827 182344
830877374947564928 519797 436450 440013 182402
830877374965756032 520032 436565 440137 182319
830877374983947136 520197 436740 440353 182320
830877375002138240 520350 436887 440545 182317
830877375020329344 520450 436932 440596 182323
830877375038520448 520161 436920 440488 182323
830877375056711552 519554 436633 440011 182316
830877375074902528 518927 436244 439531 182343
830877375093093632 518180 435822 438953 182299
830877375111284736 517513 435384 438460 182293
830877375129475840 516898 435076 438062 182344
830877375147666944 516335 434692 437649 182306
830877375165858048 515928 434539 437368 182292
830877375184049152 515601 434337 437128 182291
830877375202240256 515360 434174 437029 182351
830877375220431360 515210 434083 436904 182274
830877375238622473 514967 434028 436784 182245
830877375256813440 514966 434045 436907 182321
830877375275004416 514921 434015 436880 182319
830877375293195392 514863 434025 436893 182296
830877375311386368 514892 434107 436892 182358
830877375329577216 514845 434161 436937 182325
830877375347768192 514884 434204 437081 182374
830877375365959168 514830 434201 437036 182325
830877375384150144 514814 434156 437070 182352
830877375402341120 514782 434270 437124 182327
830877375420532096 514751 434270 437111 182316
830877375438723072 514750 434270 437202 182332
830877375456913920 514743 434280 437255 182265
830877375475104896 514858 434387 437377 182292
830877375493295872 514916 434490 437544 182317
830877375511486848 515008 434570 437604 182281
830877375529677824 515093 434631 437675 182299
830877375547868800 515204 434718 437782 182266
830877375566059776 515314 434931 438018 182289
830877375584250624 515513 435062 438125 182318
830877375602441600 515637 435207 438264 182281
830877375620632576 515844 435285 438502 182257
830877375638823552 516121 435466 438714 182303
830877375657014528 516265 435678 438888 182279
830877375675205504 516454 435846 439048 182256
830877375693396480 516678 436059 439200 182339
830877375711587456 516857 436161 439456 182299
830877375729778304 517137 436326 439621 182296
830877375747969280 517364 436550 439910 182377
830877375766160256 517367 436595 439906 182213
830877375784351232 517233 436634 439822 182308
830877375802542208 516812 436334 439520 182297
830877375820733184 516202 436019 439027 182300
830877375838924160 515502 435576 438444 182304
830877375857115008 514769 435275 437952 182302
830877375875305984 514095 434886 437522 182299
830877375893496960 513570 434595 437145 182276
830877375911687936 513151 434329 436870 182267
830877375929878912 512832 434151 436613 182190
830877375948069842 512650 434029 436509 182230
830877375966262400 512463 433931 436387 182252
830877375984454912 512309 433887 436373 182263
830877376002647424 512258 433863 436347 182279
830877376020839936 512286 433888 436390 182308
830877376039032448 512238 433871 436378 182285
830877376057224960 512213 433901 436478 182305
830877376075417600 512367 433909 436549 182317
830877376093610112 512332 433880 436506 182325
830877376111802624 512321 433984 436622 182279
830877376129995136 512320 433967 436595 182263
830877376148187648 512307 434059 436648 182282
830877376166380160 512352 434128 436699 182269
830877376184572672 512387 434146 436772 182270
830877376202765184 512470 434251 436868 182281
830877376220957696 512575 434338 436913 182272
830877376239150208 512706 434334 437022 182206
830877376257342720 512726 434452 437156 182239
830877376275535232 512860 434618 437309 182254
830877376293727872 513005 434737 437459 182284
830877376311920384 513287 434875 437568 182318
830877376330112896 513412 435074 437793 182307
830877376348305408 513659 435250 438016 182335
830877376366497920 513934 435357 438201 182275
830877376384690432 514101 435576 438365 182259
830877376402882944 514344 435709 438551 182245
830877376421075456 514632 435842 438742 182299
830877376439267968 514836 435990 438929 182280
830877376457460480 515062 436168 439139 182254
830877376475652992 515340 436364 439359 182257
830877376493845632 515549 436547 439591 182249
830877376512038144 515745 436673 439770 182242
830877376530230656 515990 436879 439991 182284
830877376548423168 516314 437076 440168 182302
830877376566615680 516519 437262 440374 182266
830877376584808192 516733 437410 440634 182241
830877376603000704 517017 437639 440891 182336
830877376621193216 517096 437726 441003 182298
830877376639385728 516920 437629 440848 182245
830877376657578247 516559 437456 440520 182299
