TIMESTAMP PPG0 PPG1 PPG2 AMBIENT
830791454352792192 463722 457919 374076 180982
830791454370973952 463684 457930 374078 181021
830791454389155840 463605 457880 373962 181057
830791454407337600 463542 457747 373912 181047
830791454425519488 463459 457587 373828 180972
830791454443701248 463447 457494 373800 181018
830791454461883136 463278 457390 373715 181014
830791454480064896 463289 457370 373655 181045
830791454498246784 463212 457261 373520 181038
830791454516428544 463150 457243 373536 181053
830791454534610432 463031 457158 373388 181024
830791454552792192 463073 457230 373420 181034
830791454570973952 463082 457195 373434 181007
830791454589155840 463107 457215 373427 181005
830791454607337600 463200 457241 373430 180993
830791454625519488 463321 457377 373421 181045
830791454643701248 463438 457515 373494 181033
830791454661883136 463519 457596 373465 180985
830791454680064896 463610 457725 373566 180978
830791454698246784 463762 457799 373711 181036
830791454716428544 463889 457935 373796 181045
830791454734610432 464042 458063 373784 181012
830791454752792192 464146 458183 373837 181031
830791454770973952 464274 458388 373915 181022
830791454789155840 464404 458421 373919 180972
830791454807337600 464553 458629 374011 180970
830791454825519488 464634 458715 374038 180979
830791454843701248 464784 458800 374141 180973
830791454861883136 464949 458982 374182 181028
830791454880064896 465094 459101 374286 181000
830791454898246784 465296 459197 374400 181007
830791454916428544 465388 459345 374463 180958
830791454934610432 465551 459433 374515 180960
830791454952792192 465648 459651 374569 180926
830791454970973952 465796 459756 374659 180977
830791454989155840 466003 459924 374740 180975
830791455007337600 466188 460043 374735 181017
830791455025519488 466338 460269 374907 181007
830791455043701248 466580 460487 375063 181034
830791455061883094 466712 460653 375130 180984
830791455080083328 466674 460597 375077 180993
830791455098283520 466450 460296 374897 180983
830791455116483840 466070 459908 374667 180986
830791455134684032 465589 459426 374346 180984
830791455152884224 465070 458845 374004 180995
830791455171084544 464551 458401 373774 180962
830791455189284736 464158 458066 373547 180942
830791455207484928 463893 457749 373346 180965
830791455225685248 463657 457533 373288 181016
830791455243885440 463520 457338 373128 181005
830791455262085632 463411 457215 373105 181046
830791455280285952 463288 457025 373140 180994
830791455298486144 463193 456921 373065 180928
830791455316686336 463073 456839 373112 180952
830791455334886656 463042 456690 373184 180944
830791455353086848 462933 456563 373234 180973
830791455371287040 462889 456465 373363 181034
830791455389487360 462730 456256 373369 180932
830791455407687552 462592 456064 373516 181002
830791455425887744 462420 455815 373638 181055
830791455444088064 462316 455714 373768 181025
830791455462288256 462233 455577 373941 181028
830791455480488448 462237 455417 374237 181004
830791455498688768 462233 455407 374529 180958
830791455516888960 462292 455403 374800 180966
830791455535089152 462451 455473 375104 180977
830791455553289472 462641 455594 375461 180983
830791455571489664 462830 455785 375772 181011
830791455589689856 463048 455963 376143 181013
830791455607890176 463294 456179 376488 180991
830791455626090368 463602 456442 376917 180976
830791455644290560 463885 456717 377362 181052
830791455662490752 464260 457015 377764 180992
830791455680691072 464509 457305 378131 181000
830791455698891264 464870 457626 378437 180987
830791455717091456 465134 457998 378720 180985
830791455735291751 465421 458287 378874 181016
830791455753493248 465753 458622 379145 181061
830791455771694720 465974 458815 379253 181013
830791455789896320 466246 459181 379502 181017
830791455808097792 466498 459443 379672 181005
830791455826299264 466752 459665 379784 181029
830791455844500864 467024 459919 380030 181043
830791455862702336 467245 460142 380216 181023
830791455880903808 467365 460391 380420 180940
830791455899105408 467580 460763 380642 180994
830791455917306880 467826 461246 380757 181042
830791455935508352 468112 461680 380968 181047
830791455953709952 468400 461992 381078 181071
830791455971911424 468519 462204 381104 181017
830791455990113024 468406 462168 381006 180989
830791456008314496 468177 461984 380808 180989
830791456026515968 467754 461632 380616 180957
830791456044717568 467354 461276 380393 181012
830791456062919040 466981 460903 380311 180984
830791456081120512 466809 460662 380196 181024
830791456099322112 466516 460365 380108 181036
830791456117523584 466379 460160 380105 181020
830791456135725056 466237 460000 380109 181012
830791456153926656 466155 459962 380220 181024
830791456172128128 466082 459841 380188 180994
830791456190329600 466020 459822 380217 180990
830791456208531200 465998 459739 380276 181016
830791456226732672 466030 459788 380358 181007
830791456244934144 466031 459726 380457 181006
830791456263135744 466030 459744 380606 180995
830791456281337216 465997 459755 380618 180977
830791456299538688 466013 459801 380660 180994
830791456317740288 465998 459708 380725 181014
830791456335941760 465981 459711 380762 181033
830791456354143232 465965 459715 380790 181001
830791456372344832 466028 459697 380869 181007
830791456390546304 465951 459711 380872 180969
830791456408747904 466014 459795 380992 180975
830791456426949376 466076 459853 381079 181034
830791456445150848 466173 460005 381193 181062
830791456463352448 466285 460223 381342 181037
830791456481553920 466448 460423 381428 181082
830791456499755447 466656 460665 381608 180945
830791456517956352 466825 460939 381716 181045
830791456536157312 467030 461171 381819 181024
830791456554358272 467246 461366 381909 181045
830791456572559232 467391 461598 382065 181036
830791456590760192 467651 461811 382229 181030
830791456608961280 467840 461984 382238 181012
830791456627162240 468118 462218 382413 181024
830791456645363200 468382 462423 382429 181042
830791456663564160 468596 462578 382495 181034
830791456681765120 468829 462712 382505 180996
830791456699966080 469025 462907 382556 181054
830791456718167040 469237 462980 382560 181020
830791456736368000 469384 463140 382571 180955
830791456754569088 469429 463287 382527 180971
830791456772770048 469626 463413 382566 180972
830791456790971008 469747 463480 382600 181014
830791456809171968 469892 463595 382589 181037
830791456827372928 469995 463739 382610 181024
830791456845573888 470157 463901 382699 181057
830791456863774848 470231 464100 382797 180956
830791456881975808 470401 464152 382930 181007
830791456900176896 470500 464276 383109 181007
830791456918377856 470575 464356 383200 181007
830791456936578816 470350 464215 383133 180976
830791456954779776 470110 463874 382997 181069
830791456972980736 469585 463385 382791 181025
830791456991181696 469037 462988 382594 181003
830791457009382656 468495 462482 382343 180986
830791457027583616 468077 462139 382232 181036
830791457045784576 467708 461823 382144 180976
830791457063985664 467444 461662 382039 180990
830791457082186624 467308 461515 381954 181020
830791457100387584 467100 461414 381985 180992
830791457118588544 467095 461378 382023 180977
830791457136789504 467040 461274 382048 181047
830791457154990464 467004 461301 382153 181023
830791457173191424 466937 461430 382370 181037
830791457191392509 466896 461536 382447 181052
830791457209593472 466866 461800 382456 181008
830791457227794432 466894 462041 382427 181019
830791457245995392 466968 462131 382380 181028
830791457264196224 467010 462296 382247 180983
830791457282397184 467075 462390 382173 180994
830791457300598144 467124 462386 382081 180970
830791457318799104 467179 462543 382167 180961
830791457337000064 467322 462575 382171 181009
830791457355200896 467521 462740 382298 181046
830791457373401856 467671 462824 382299 181075
830791457391602816 467796 462840 382399 181028
830791457409803776 468010 462959 382603 181020
830791457428004736 468220 463099 382731 180969
830791457446205568 468374 463190 382844 180984
830791457464406528 468514 463333 382976 181005
830791457482607488 468711 463455 383202 181010
830791457500808448 468900 463662 383381 181024
830791457519009408 469057 463818 383464 180979
830791457537210368 469259 464053 383579 180949
830791457555411200 469425 464220 383736 180986
830791457573612160 469591 464307 383886 180994
830791457591813120 469675 464450 383962 181034
830791457610014080 469744 464653 384156 181059
830791457628215040 469858 464688 384237 181003
830791457646415872 469920 464844 384410 181073
830791457664616832 470135 465070 384527 181011
830791457682817792 470250 465251 384617 180988
830791457701018752 470502 465589 384756 180974
830791457719219712 470677 465767 384867 180994
830791457737420544 470934 465954 384886 180985
830791457755621504 471250 466203 384930 181005
830791457773822464 471499 466447 384972 181024
830791457792023424 471689 466633 384951 180968
830791457810224384 471888 466867 384952 181036
830791457828425216 472149 467038 384998 181024
830791457846626176 472292 467287 385006 180950
830791457864827136 472434 467415 385070 181005
830791457883028096 472592 467544 385125 180968
830791457901229056 472581 467551 385063 180947
830791457919429888 472523 467544 385078 181026
830791457937630848 472161 467213 384863 181014
830791457955831787 471814 466928 384702 180965
830791457974033408 471438 466606 384480 181019
830791457992235008 471024 466251 384342 181026
830791458010436736 470729 465978 384192 180983
830791458028638336 470496 465743 384180 181004
830791458046840064 470346 465675 384172 181040
830791458065041664 470221 465564 384193 181061
830791458083243392 470193 465494 384233 181103
830791458101444992 470097 465443 384304 181033
830791458119646720 470003 465444 384342 180987
830791458137848320 470007 465453 384374 181040
830791458156050048 469991 465462 384436 181014
830791458174251648 469972 465519 384489 181018
830791458192453376 469975 465511 384547 180977
830791458210654976 469980 465541 384600 180996
830791458228856704 469889 465525 384549 181020
830791458247058304 469877 465527 384618 180994
830791458265260032 469846 465465 384619 181008
830791458283461632 469821 465435 384615 180972
830791458301663360 469761 465399 384620 180940
830791458319864960 469871 465477 384685 180989
830791458338066688 470029 465573 384789 181004
830791458356268288 470197 465653 384921 181007
830791458374470016 470336 465810 385050 181028
830791458392671616 470676 465961 385211 181028
830791458410873344 470900 466062 385268 180961
830791458429074944 471139 466224 385360 180985
830791458447276672 471311 466331 385375 180941
830791458465478272 471501 466494 385434 181002
830791458483680000 471642 466602 385478 180987
830791458501881600 471761 466718 385573 180964
830791458520083328 471932 466799 385644 180923
830791458538284928 472112 466937 385681 180985
830791458556486528 472183 467017 385775 180972
830791458574688256 472372 467081 385929 180999
830791458592889856 472524 467182 385963 180991
830791458611091584 472730 467298 386102 180992
830791458629293184 472860 467431 386196 180973
830791458647494912 473003 467565 386418 181060
830791458665696512 473186 467681 386513 181054
830791458683898240 473333 467805 386627 181022
830791458702099840 473503 467918 386810 180947
830791458720301587 473738 468034 387040 181008
830791458738502656 473924 468209 387302 181000
830791458756703744 474139 468394 387548 181010
830791458774904704 474443 468525 387850 181002
830791458793105792 474756 468678 388226 181023
830791458811306880 475073 468814 388591 181039
830791458829507840 475320 468833 388890 181018
830791458847708928 475296 468597 389037 181029
830791458865910016 475142 468343 389098 181062
830791458884110976 474892 467973 389051 180986
830791458902312064 474647 467636 388971 180968
830791458920513152 474429 467279 388891 180957
830791458938714112 474230 467005 388786 180986
830791458956915200 474043 466699 388736 180977
830791458975116288 473988 466558 388778 181016
830791458993317248 473890 466457 388727 181062
830791459011518336 473826 466362 388661 181013
830791459029719424 473755 466186 388517 181037
830791459047920384 473641 466136 388451 180960
830791459066121472 473630 466144 388396 180974
830791459084322432 473535 466015 388309 181011
830791459102523520 473431 466064 388168 180950
830791459120724608 473245 465997 387951 180978
830791459138925568 473132 466028 387755 181009
830791459157126656 472926 465982 387486 181005
830791459175327744 472747 465917 387301 180967
830791459193528704 472607 465803 387063 181010
830791459211729792 472434 465808 386969 180967
830791459229930880 472241 465727 386913 181004
830791459248131840 472154 465695 386838 181054
830791459266332928 472022 465618 386884 180973
830791459284534016 472006 465604 386949 180934
830791459302734976 472006 465616 387228 180934
830791459320936064 471985 465697 387526 181035
830791459339137152 471884 465710 387813 180958
830791459357338112 471915 465727 388108 181010
830791459375539200 471952 465838 388385 181013
830791459393740288 472012 465932 388589 180975
830791459411941248 472166 466104 388771 181009
830791459430142336 472208 466221 388847 181034
830791459448343424 472396 466498 388941 180979
830791459466544384 472500 466723 389010 181003
830791459484745443 472714 466967 389140 180985
830791459502947072 472972 467191 389287 181025
830791459521148672 473199 467419 389490 180993
830791459539350144 473416 467684 389762 181029
830791459557551744 473530 468055 389990 181004
830791459575753344 473699 468407 390129 181041
830791459593954816 473798 468610 390160 181033
830791459612156416 473925 468906 390092 180947
830791459630357888 474090 469163 390003 180965
830791459648559488 474301 469432 389886 181000
830791459666761088 474424 469612 389856 180992
830791459684962560 474687 469876 390009 181010
830791459703164160 474844 470206 390033 180999
830791459721365760 475000 470426 390087 180982
830791459739567232 475314 470640 390190 181055
830791459757768832 475474 470797 390294 181040
830791459775970304 475586 470938 390369 181010
830791459794171904 475484 470743 390292 181067
830791459812373504 475302 470533 390138 181010
830791459830574976 474994 470323 389956 181057
830791459848776576 474641 470006 389708 181043
830791459866978176 474333 469664 389461 181059
830791459885179648 474044 469347 389349 181013
830791459903381248 473904 469193 389309 181030
830791459921582848 473795 469032 389287 181035
830791459939784320 473750 468980 389322 181012
830791459957985920 473699 468820 389273 180988
830791459976187392 473657 468709 389261 180995
830791459994388992 473631 468631 389292 180976
830791460012590592 473646 468629 389303 181030
830791460030792064 473751 468683 389377 181018
830791460048993664 473640 468595 389349 180925
830791460067195264 473660 468629 389375 180975
830791460085396736 473697 468678 389494 181042
830791460103598336 473616 468602 389353 180974
830791460121799808 473675 468613 389424 181033
830791460140001408 473639 468664 389383 180957
830791460158203008 473577 468599 389388 181021
830791460176404480 473574 468623 389390 181034
830791460194606080 473616 468652 389334 180983
830791460212807680 473651 468676 389352 181021
830791460231009152 473713 468729 389410 181014
830791460249210661 473821 468813 389475 181078
830791460267410816 473974 468949 389624 181061
830791460285611008 474068 469077 389635 181060
830791460303811072 474117 469201 389688 181042
830791460322011264 474230 469326 389736 181021
830791460340211456 474378 469446 389760 181069
830791460358411520 474517 469517 389851 181007
830791460376611712 474672 469750 389867 181028
830791460394811904 474833 469875 389905 180957
830791460413012096 475008 469972 389997 181016
830791460431212160 475169 470102 390011 181034
830791460449412352 475299 470272 390027 181009
830791460467612544 475464 470383 390142 181006
830791460485812608 475580 470481 390191 181067
830791460504012800 475756 470636 390266 180994
830791460522212992 475934 470806 390377 180950
830791460540413056 476116 470935 390384 181028
830791460558613248 476189 471034 390464 181043
830791460576813440 476302 471137 390502 181020
830791460595013504 476438 471192 390546 181051
830791460613213696 476536 471250 390557 180982
830791460631413888 476664 471357 390626 181023
830791460649614080 476735 471441 390664 181029
830791460667814144 476840 471491 390640 181014
830791460686014336 476903 471481 390652 181056
830791460704214528 476968 471440 390580 181060
830791460722414592 476904 471346 390467 180991
830791460740614784 476951 471302 390353 180991
830791460758814976 476995 471188 390213 181034
830791460777015040 476820 471073 390018 181070
830791460795215232 476447 470645 389584 181030
830791460813415424 476003 470187 389123 181035
830791460831615488 475529 469633 388696 181045
830791460849815680 474970 469152 388293 181026
830791460868015872 474485 468617 387767 181062
830791460886216064 474038 468170 387337 181048
830791460904416128 473586 467755 386887 181037
830791460922616320 473235 467415 386453 181035
830791460940816512 472908 467080 386035 181019
830791460959016616 472557 466753 385587 180952
830791460977218176 472342 466483 385183 181038
830791460995419776 472030 466218 384776 181011
830791461013621504 471822 466019 384444 181064
830791461031823104 471526 465765 384039 181003
830791461050024704 471377 465604 383821 181013
830791461068226432 471085 465375 383549 181047
830791461086428032 470876 465145 383214 181037
830791461104629632 470698 464924 382942 181037
830791461122831360 470460 464719 382692 181080
830791461141032960 470319 464490 382512 181030
830791461159234688 470149 464249 382228 181000
830791461177436288 469989 464100 381983 181038
830791461195637888 469869 463915 381831 181076
830791461213839616 469827 463815 381711 181081
830791461232041216 469687 463710 381606 181062
830791461250242816 469677 463669 381485 181022
830791461268444544 469682 463673 381427 181043
830791461286646144 469620 463599 381309 180987
830791461304847744 469629 463549 381230 181005
830791461323049472 469663 463591 381194 180992
830791461341251072 469676 463615 381159 181029
830791461359452672 469720 463560 381080 181013
830791461377654400 469663 463542 381035 180987
830791461395856000 469755 463529 381002 181006
830791461414057600 469711 463589 380928 180971
830791461432259328 469733 463511 380873 181047
830791461450460928 469726 463468 380753 181034
830791461468662528 469697 463439 380698 181043
830791461486864256 469701 463414 380706 180987
830791461505065856 469694 463366 380689 180977
830791461523267584 469784 463378 380684 181044
830791461541469184 469792 463316 380620 181034
830791461559670784 469884 463294 380634 181040
830791461577872512 469941 463353 380627 181010
830791461596074112 469987 463343 380614 181035
830791461614275712 470049 463319 380647 181011
830791461632477440 470197 463440 380709 181007
830791461650679040 470302 463487 380772 181086
830791461668880640 470372 463559 380797 181022
830791461687082368 470554 463677 380849 181028
830791461705283968 470669 463805 380827 181058
830791461723485568 470674 463804 380788 181029
830791461741687347 470525 463683 380546 181045
830791461759888256 470217 463363 380274 181048
830791461778089216 469799 462939 379891 181033
830791461796290176 469257 462445 379442 180954
830791461814491008 468798 462041 379106 180972
830791461832691968 468394 461740 378830 181106
830791461850892928 468000 461302 378417 180988
830791461869093888 467664 461100 378202 180973
830791461887294848 467440 460780 377961 180960
830791461905495680 467267 460629 377812 180976
830791461923696640 467055 460543 377636 181010
830791461941897600 467024 460433 377525 181043
830791461960098560 466962 460382 377432 181036
830791461978299520 466950 460282 377326 181062
830791461996500352 466890 460204 377256 181009
830791462014701312 466917 460161 377200 181076
830791462032902272 466776 460131 377109 181059
830791462051103232 466611 460134 377067 181054
830791462069304192 466542 460030 376964 180969
830791462087505152 466471 459943 376831 181024
830791462105705984 466389 459891 376749 180989
830791462123906944 466323 459814 376676 181033
830791462142107904 466303 459861 376633 181011
830791462160308864 466296 459877 376642 181012
830791462178509824 466343 459894 376610 180974
830791462196710656 466480 459998 376657 181038
830791462214911616 466529 460135 376711 181106
830791462233112576 466616 460271 376780 181034
830791462251313536 466693 460408 376911 180981
830791462269514496 466851 460558 376967 180969
830791462287715328 467070 460726 377086 181019
830791462305916288 467210 461009 377187 181050
830791462324117248 467385 461128 377323 181012
830791462342318208 467590 461291 377441 181085
830791462360519168 467773 461423 377541 181053
830791462378720000 467946 461643 377639 181033
830791462396920960 468129 461873 377792 181018
830791462415121920 468275 462077 377874 181019
830791462433322880 468493 462248 378054 180999
830791462451523820 468679 462452 378207 181041
830791462469724544 468970 462725 378375 181085
830791462487925248 469141 462912 378529 181060
830791462506125824 469311 463067 378631 181002
830791462524326528 469568 463307 378842 181012
830791462542527104 469848 463513 378986 181046
830791462560727808 469936 463603 379041 180985
830791462578928384 469792 463442 378907 180968
830791462597129088 469398 463159 378707 180962
830791462615329664 469072 462787 378468 181029
830791462633530368 468591 462369 378163 180979
830791462651730944 468195 461960 377904 181009
830791462669931648 467813 461600 377666 181035
830791462688132224 467512 461358 377509 181044
830791462706332928 467257 461140 377346 181033
830791462724533504 467030 460946 377234 180975
830791462742734208 466924 460796 377198 180960
830791462760934912 466905 460744 377195 181026
830791462779135488 466841 460742 377163 181063
830791462797336192 466831 460710 377151 181029
830791462815536768 466799 460722 377155 181054
830791462833737472 466825 460722 377149 180995
830791462851938048 466809 460697 377187 181005
830791462870138752 466836 460694 377177 181021
830791462888339328 466733 460612 377184 181020
830791462906540032 466659 460568 377085 180947
830791462924740608 466588 460538 377060 180972
830791462942941312 466554 460444 376995 181030
830791462961141888 466563 460428 377020 181062
830791462979342592 466461 460402 376958 181010
830791462997543296 466474 460431 377001 181036
830791463015743872 466464 460427 376950 180987
830791463033944576 466494 460491 377107 181040
830791463052145152 466621 460628 377103 181069
830791463070345856 466728 460662 377171 181025
830791463088546432 466798 460795 377279 181037
830791463106747136 466943 460928 377309 181031
830791463124947712 467110 461020 377439 181013
830791463143148416 467157 461169 377533 181071
830791463161348992 467385 461319 377640 181060
830791463179549696 467527 461470 377740 181056
830791463197750272 467702 461694 377856 181016
830791463215950890 467839 461850 377986 181056
830791463234150400 468046 462001 378075 181038
830791463252349952 468126 462130 378139 181027
830791463270549632 468305 462263 378243 181028
830791463288749184 468457 462472 378326 181086
830791463306948864 468538 462583 378395 181007
830791463325148416 468753 462767 378465 181090
830791463343348096 468935 462969 378624 181052
830791463361547648 469062 463131 378713 181037
830791463379747328 469236 463329 378892 181051
830791463397946880 469409 463539 378977 181080
830791463416146560 469486 463627 379048 181099
830791463434346112 469346 463461 378925 181084
830791463452545792 469000 463212 378641 181078
830791463470745344 468476 462690 378340 181051
830791463488945024 467853 462146 377936 180996
830791463507144576 467286 461680 377617 181033
830791463525344256 466884 461248 377300 181064
830791463543543808 466394 460895 377120 181018
830791463561743488 466090 460536 376897 181043
830791463579943040 465911 460354 376843 181051
830791463598142720 465774 460245 376801 181002
830791463616342272 465687 460193 376792 181093
830791463634541952 465650 460138 376811 181064
830791463652741504 465669 460099 376856 181029
830791463670941184 465753 460151 376889 181051
830791463689140736 465782 460203 376954 181045
830791463707340416 465804 460280 377024 181004
830791463725539968 465862 460355 377037 181035
830791463743739648 465927 460370 377075 181036
830791463761939200 465910 460401 377038 180960
830791463780138880 465973 460462 377091 181013
830791463798338432 466039 460527 377162 181054
830791463816538112 466080 460483 377210 181026
830791463834737664 466086 460503 377224 181011
830791463852937344 466237 460679 377358 181054
830791463871136896 466280 460700 377359 181023
830791463889336665 466387 460749 377411 181060
830791463907536896 466505 460928 377502 181046
830791463925737088 466703 461115 377615 181034
830791463943937280 466883 461314 377698 181021
830791463962137472 467116 461491 377828 181030
830791463980337536 467317 461648 377929 181024
830791463998537728 467592 461905 378130 181031
830791464016737920 467731 462044 378148 181069
830791464034938112 467946 462212 378299 181051
830791464053138304 468143 462457 378441 181080
830791464071338496 468324 462680 378539 181067
830791464089538560 468511 462855 378664 181075
830791464107738752 468681 462995 378782 181050
830791464125938944 468856 463178 378865 181044
830791464144139136 469066 463332 378935 181055
830791464162339328 469228 463452 379033 181009
830791464180539520 469411 463660 379154 180981
830791464198739712 469564 463857 379258 180995
830791464216939776 469718 464080 379413 181053
830791464235139968 469964 464241 379490 181051
830791464253340160 470157 464481 379668 181062
830791464271540352 470337 464705 379864 181057
830791464289740544 470491 464819 379834 180996
830791464307940736 470647 464945 379850 181035
830791464326140800 470415 464743 379719 181030
830791464344340992 469994 464357 379447 181028
830791464362541184 469530 463901 379239 181065
830791464380741376 468948 463310 378915 181096
830791464398941568 468365 462844 378608 181098
830791464417141760 467970 462454 378442 181102
830791464435341952 467586 461969 378139 181070
830791464453542016 467284 461683 378009 181094
830791464471742208 467021 461548 377854 181040
830791464489942400 466867 461389 377790 181041
830791464508142592 466711 461219 377714 181118
830791464526342784 466645 461170 377701 181075
830791464544542976 466638 461156 377690 181064
830791464562743040 466586 461172 377731 181088
830791464580943232 466655 461155 377715 181089
830791464599143424 466550 461058 377759 181091
830791464617343555 466526 460971 377653 181061
830791464635545472 466459 460982 377604 181061
830791464653747328 466367 460928 377574 181052
830791464671949312 466319 460923 377536 181061
830791464690151168 466269 460911 377514 181047
830791464708353024 466212 460865 377519 181022
830791464726554880 466211 460831 377573 181030
830791464744756864 466305 460824 377542 181106
830791464762958720 466341 460900 377636 181081
830791464781160576 466377 460971 377642 181000
830791464799362432 466445 461080 377751 181002
830791464817564416 466606 461180 377878 181077
830791464835766272 466673 461321 377909 181071
830791464853968128 466836 461458 377997 181065
830791464872169984 467014 461579 378066 181017
830791464890371968 467131 461735 378130 181035
830791464908573824 467334 461900 378246 181038
830791464926775680 467461 462099 378330 181053
830791464944977536 467723 462263 378482 181057
830791464963179520 467853 462427 378585 181104
830791464981381376 467982 462554 378687 181045
830791464999583232 468170 462765 378818 181060
830791465017785088 468362 462881 378883 181028
830791465035987072 468521 463003 378950 181079
830791465054188928 468600 463189 379038 180999
830791465072390784 468796 463353 379182 181084
830791465090592640 468935 463524 379267 181048
830791465108794624 469116 463663 379314 181114
830791465126996480 469247 463797 379410 181069
830791465145198336 469517 464019 379599 181063
830791465163400192 469654 464183 379767 181040
830791465181602176 469901 464394 379851 181069
830791465199804032 470031 464541 379937 181028
830791465218005888 470166 464723 380059 181046
830791465236207744 470153 464681 380034 181047
830791465254409728 469863 464368 379829 181055
830791465272611584 469423 463931 379529 181002
830791465290813440 468924 463445 379203 181086
830791465309015424 468404 463032 378932 181055
830791465327217280 467942 462518 378732 181047
830791465345419111 467567 462123 378524 181047
830791465363621632 467291 461866 378441 181081
830791465381824128 467044 461666 378326 181028
830791465400026496 466935 461502 378271 181024
830791465418228992 466776 461393 378191 181016
830791465436431488 466721 461303 378135 181030
830791465454633984 466763 461239 378140 181027
830791465472836352 466727 461294 378201 181005
830791465491038848 466706 461286 378245 181058
830791465509241344 466738 461280 378184 181009
830791465527443840 466742 461272 378202 181005
830791465545646208 466729 461251 378239 181028
830791465563848704 466716 461204 378209 181060
830791465582051200 466572 461087 378117 181020
830791465600253568 466612 461087 378183 181044
830791465618456064 466512 461008 378126 181043
830791465636658560 466546 461015 378124 180986
830791465654861056 466484 460982 378112 180953
830791465673063424 466618 461016 378162 180992
830791465691265920 466575 461060 378136 180996
830791465709468416 466772 461173 378204 181008
830791465727670912 466801 461303 378332 181039
830791465745873280 466950 461398 378425 181010
830791465764075776 467130 461544 378458 181018
830791465782278272 467300 461752 378587 180974
830791465800480640 467484 461903 378702 180985
830791465818683136 467629 462013 378768 181006
830791465836885632 467745 462180 378897 181094
830791465855088128 467922 462342 378987 181060
830791465873290496 468092 462489 379128 181033
830791465891492992 468229 462647 379217 181058
830791465909695488 468438 462824 379352 181103
830791465927897984 468568 462926 379367 181055
830791465946100352 468719 463132 379421 181040
830791465964302848 468957 463277 379551 181086
830791465982505344 469073 463509 379669 181082
830791466000707712 469212 463577 379730 181036
830791466018910208 469372 463787 379840 181062
830791466037112704 469511 463885 379913 181004
830791466055315200 469734 464039 379998 180994
830791466073517555 469858 464153 380114 181106
830791466091719296 469835 464166 380094 181040
830791466109921024 469636 463935 379992 181079
830791466128122752 469176 463555 379761 181055
830791466146324352 468747 463079 379515 181102
830791466164526080 468124 462537 379226 181045
830791466182727808 467650 462073 378901 181057
830791466200929536 467318 461602 378771 181067
830791466219131136 466966 461319 378627 181059
830791466237332864 466643 461053 378425 181052
830791466255534592 466462 460910 378399 181031
830791466273736320 466469 460825 378385 181101
830791466291937920 466289 460668 378298 181061
830791466310139648 466245 460617 378196 181047
830791466328341376 466192 460596 378312 181038
830791466346543104 466246 460538 378280 181061
830791466364744832 466272 460557 378358 181105
830791466382946432 466303 460570 378397 181037
830791466401148160 466322 460523 378331 181029
830791466419349888 466240 460580 378339 181068
830791466437551616 466173 460472 378323 181036
830791466455753216 466203 460491 378309 181013
830791466473954944 466108 460474 378354 181036
830791466492156672 466124 460470 378400 181078
830791466510358400 466213 460453 378387 181059
830791466528560000 466212 460480 378398 181048
830791466546761728 466294 460455 378437 181059
830791466564963456 466386 460579 378440 181045
830791466583165184 466451 460725 378502 181046
830791466601366784 466539 460829 378538 181043
830791466619568512 466717 460948 378675 181017
830791466637770240 466902 461075 378828 181038
830791466655971968 467059 461227 378845 181033
830791466674173696 467286 461426 378990 181097
830791466692375296 467373 461557 378988 181070
830791466710577024 467548 461718 379138 180991
830791466728778752 467705 461854 379186 181025
830791466746980480 467927 462084 379307 180973
830791466765182080 468056 462223 379389 181073
830791466783383808 468299 462441 379525 181063
830791466801585481 468472 462573 379625 181072
830791466819788544 468592 462757 379771 181028
830791466837991552 468723 462903 379879 181052
830791466856194560 468887 463077 379923 180989
830791466874397696 469119 463275 380058 181039
830791466892600704 469350 463468 380146 180976
830791466910803712 469481 463660 380256 181037
830791466929006720 469706 463864 380374 181063
830791466947209728 469925 464080 380516 181035
830791466965412864 469946 464073 380535 180968
830791466983615872 469768 463892 380446 180979
830791467001818880 469364 463521 380187 180993
830791467020021888 468870 462990 379940 181026
830791467038224896 468418 462534 379728 181055
830791467056428032 467913 462062 379532 181061
830791467074631040 467420 461636 379193 180989
830791467092834048 467100 461210 379030 181020
830791467111037056 466838 460966 378859 181016
830791467129240064 466628 460770 378790 181043
830791467147443200 466445 460624 378704 180977
830791467165646208 466340 460398 378715 181024
830791467183849216 466247 460346 378679 181073
830791467202052224 466254 460329 378668 181108
830791467220255232 466192 460313 378652 181057
830791467238458368 466196 460269 378629 181067
830791467256661376 466177 460238 378587 181063
830791467274864384 466148 460197 378597 181070
830791467293067392 466127 460200 378645 181029
830791467311270400 466065 460122 378586 180991
830791467329473536 466109 459994 378572 180995
830791467347676544 466116 460007 378551 181005
830791467365879552 466025 459959 378520 181080
830791467384082560 466015 459984 378511 180993
830791467402285568 466091 460018 378557 181069
830791467420488704 466144 460086 378638 181071
830791467438691712 466167 460133 378674 181040
830791467456894720 466371 460235 378824 181026
830791467475097728 466425 460399 378808 181072
830791467493300736 466547 460468 378885 181055
830791467511503872 466730 460608 378988 181000
830791467529706813 466935 460793 379105 180949
830791467547908608 467008 460906 379088 180967
830791467566110464 467219 461051 379204 181030
830791467584312192 467401 461213 379318 181027
830791467602514048 467593 461383 379413 181013
830791467620715776 467661 461508 379459 181009
830791467638917632 467853 461712 379552 180966
830791467657119488 468052 461824 379734 180986
830791467675321216 468271 462027 379783 180999
830791467693523072 468430 462200 379874 180996
830791467711724928 468528 462336 379928 180977
830791467729926656 468716 462553 380040 181059
830791467748128512 468861 462671 380097 181031
830791467766330240 469096 462809 380247 181041
830791467784532096 469204 462981 380325 180968
830791467802733952 469351 463207 380444 181003
830791467820935680 469577 463372 380545 180968
830791467839137536 469772 463554 380665 181020
830791467857339392 469981 463766 380786 181037
830791467875541120 470151 463914 380861 181008
830791467893742976 470167 463912 380819 181014
830791467911944704 469914 463685 380741 181021
830791467930146560 469502 463278 380501 181031
830791467948348416 469052 462794 380265 181006
830791467966550144 468579 462271 379978 180935
830791467984752000 468138 461809 379790 180994
830791468002953728 467709 461398 379551 181040
830791468021155584 467348 461067 379350 181013
830791468039357440 467097 460842 379286 181033
830791468057559168 466887 460659 379165 181004
830791468075761024 466796 460513 379088 181040
830791468093962880 466773 460388 379086 181030
830791468112164608 466649 460337 378990 181007
830791468130366464 466668 460283 378985 180995
830791468148568192 466664 460303 379067 181030
830791468166770064 466652 460279 379080 181052
830791468184972544 466699 460281 379121 181065
830791468203175040 466699 460286 379051 181123
830791468221377408 466646 460264 379095 181001
830791468239579904 466665 460273 379065 181063
830791468257782400 466623 460223 379056 181042
830791468275984896 466613 460253 379078 181020
830791468294187264 466628 460325 379050 181009
830791468312389760 466704 460308 379136 181064
830791468330592256 466734 460316 379186 181056
830791468348794752 466854 460420 379260 181044
830791468366997120 466850 460472 379232 181031
830791468385199616 466984 460573 379330 181019
830791468403402112 467105 460736 379424 181054
830791468421604480 467267 460832 379465 181004
830791468439806976 467386 460988 379590 181019
830791468458009472 467575 461166 379645 181068
830791468476211968 467783 461375 379754 181047
830791468494414336 467979 461585 379893 181088
830791468512616832 468121 461708 379977 181021
830791468530819328 468289 461999 380046 181014
830791468549021824 468480 462066 380120 180987
830791468567224192 468642 462257 380240 181016
830791468585426688 468794 462374 380333 181010
830791468603629184 469026 462578 380437 181022
830791468621831552 469177 462732 380550 181017
830791468640034048 469399 462957 380645 181034
830791468658236544 469616 463188 380710 181007
830791468676439040 469803 463334 380831 181030
830791468694641408 469886 463510 380929 181019
830791468712843904 470094 463713 381063 181005
830791468731046400 470251 463842 381109 180949
830791468749248896 470450 464029 381242 181045
830791468767451264 470669 464253 381377 181044
830791468785653760 470846 464468 381462 181021
830791468803856256 471042 464605 381556 181034
830791468822058624 471228 464789 381661 181077
830791468840261120 471203 464836 381654 181050
830791468858463616 471075 464693 381570 181074
830791468876666112 470680 464336 381366 181026
830791468894868480 470268 463859 381046 181014
830791468913070976 469835 463395 380881 181027
830791468931273472 469441 462920 380636 181034
830791468949475891 469104 462636 380480 181021
830791468967678336 468809 462335 380363 181042
830791468985880832 468614 462083 380271 181104
830791469004083200 468477 461919 380179 181054
830791469022285696 468348 461797 380140 181038
830791469040488192 468210 461705 380082 181023
830791469058690688 468246 461704 380069 181057
830791469076893056 468239 461682 380082 181076
830791469095095552 468214 461716 380087 181031
830791469113298048 468242 461719 380089 181048
830791469131500544 468219 461731 380123 181041
830791469149702912 468195 461703 380107 181035
830791469167905408 468148 461650 380039 181006
830791469186107904 468146 461541 380013 181027
830791469204310272 468049 461530 379981 181059
830791469222512768 467986 461494 379965 181058
830791469240715264 468034 461503 380005 181071
830791469258917760 468024 461409 380004 181085
830791469277120128 468007 461469 380031 181052
830791469295322624 468110 461568 380064 181088
830791469313525120 468112 461606 380027 181039
830791469331727616 468246 461690 380127 181087
830791469349929984 468356 461838 380222 181052
830791469368132480 468509 461986 380237 181070
830791469386334976 468616 462080 380317 181024
830791469404537344 468758 462262 380436 181047
830791469422739840 468869 462367 380481 180994
830791469440942336 469120 462508 380537 181033
830791469459144832 469219 462744 380670 181041
830791469477347200 469394 462817 380686 181024
830791469495549696 469519 462994 380809 181058
830791469513752192 469694 463235 380848 181079
830791469531954688 469841 463305 380967 181030
830791469550157056 469990 463488 381078 181051
830791469568359552 470148 463600 381083 181039
830791469586562048 470267 463717 381147 180962
830791469604764416 470482 463913 381244 181029
830791469622966912 470725 464091 381444 181065
830791469641169408 470884 464282 381514 181046
830791469659371904 471033 464409 381583 181078
830791469677574335 471107 464529 381619 181052
830791469695775872 471099 464504 381616 181042
830791469713977472 470818 464268 381434 181025
830791469732179200 470505 463883 381275 181050
830791469750380800 469992 463413 380975 181011
830791469768582528 469483 462878 380737 181047
830791469786784128 469073 462462 380505 181088
830791469804985856 468666 462094 380316 181045
830791469823187456 468393 461788 380146 181090
830791469841389184 468201 461540 379976 181108
830791469859590784 468022 461280 379845 181074
830791469877792512 467781 461118 379693 181040
830791469895994112 467633 460949 379598 181091
830791469914195712 467516 460783 379439 181070
830791469932397440 467360 460665 379449 181026
830791469950599040 467293 460600 379436 181074
830791469968800768 467225 460513 379432 181103
830791469987002368 467109 460429 379362 181003
830791470005204096 467068 460428 379331 181039
830791470023405696 467005 460373 379310 181006
830791470041607424 466844 460249 379260 181011
830791470059809024 466824 460139 379185 181031
830791470078010752 466697 460067 379177 181052
830791470096212352 466683 460088 379081 181018
830791470114413952 466664 460061 379000 181018
830791470132615680 466591 459998 379018 181059
830791470150817280 466618 460039 379104 181027
830791470169019008 466690 460033 379130 181020
830791470187220608 466723 460075 379114 180981
830791470205422336 466806 460168 379174 181058
830791470223623936 466786 460192 379236 180993
830791470241825664 466912 460250 379181 180999
830791470260027264 467055 460371 379276 181021
830791470278228992 467070 460535 379310 181003
830791470296430592 467239 460653 379398 180977
830791470314632192 467365 460779 379517 180966
830791470332833920 467529 460932 379569 180974
830791470351035520 467646 461082 379698 181023
830791470369237339 467777 461231 379750 180994
830791470387439744 468013 461373 379935 181074
830791470405642112 468154 461507 380038 181065
830791470423844480 468337 461635 380183 181040
830791470442046848 468479 461858 380299 181037
830791470460249216 468695 462081 380448 181011
830791470478451456 468925 462288 380655 181040
830791470496653824 469062 462533 380812 181034
830791470514856192 469283 462724 380911 181021
830791470533058560 469513 462964 381166 181025
830791470551260928 469677 463192 381314 181005
830791470569463296 469646 463178 381354 181036
830791470587665664 469391 463005 381266 181097
830791470605868032 469025 462600 381052 181064
830791470624070272 468580 462218 380940 181119
830791470642272640 468134 461808 380604 181054
830791470660475008 467698 461399 380408 181062
830791470678677376 467350 461074 380261 181040
830791470696879744 467035 460856 380116 181001
830791470715082112 466877 460657 380034 181045
830791470733284480 466654 460543 380027 181055
830791470751486848 466515 460448 379976 181091
830791470769689088 466456 460350 379938 181063
830791470787891456 466367 460310 379925 181043
830791470806093824 466286 460307 379876 181025
830791470824296192 466325 460312 379880 181001
830791470842498560 466307 460341 379938 181057
830791470860700928 466235 460371 379868 180986
830791470878903296 466234 460437 379949 181030
830791470897105664 466237 460472 379911 181019
830791470915307904 466175 460414 379859 180993
830791470933510272 466243 460518 379843 181063
830791470951712640 466192 460546 379817 181074
830791470969915008 466101 460588 379760 181068
830791470988117376 466015 460704 379680 181041
830791471006319744 466091 460860 379531 181050
830791471024522112 466220 460946 379452 181088
830791471042724480 466327 461100 379318 181056
830791471060926720 466505 461234 379310 181054
830791471079129088 466713 461373 379284 181063
830791471097331456 466906 461593 379250 181105
830791471115533824 467132 461740 379210 181067
830791471133736127 467295 461974 379219 181062
830791471151937152 467438 462110 379153 180983
830791471170138240 467639 462366 379175 181021
830791471188339328 467843 462594 379180 180999
830791471206540544 468013 462795 379223 181030
830791471224741632 468104 462930 379208 180995
830791471242942720 468334 463220 379374 181042
830791471261143808 468505 463425 379384 181069
830791471279345024 468727 463598 379390 181091
830791471297546112 468902 463839 379409 181098
830791471315747200 469104 464042 379432 181027
830791471333948288 469263 464283 379563 181004
830791471352149376 469424 464446 379623 181035
830791471370350592 469726 464670 379712 181001
830791471388551680 469999 464916 379760 181051
830791471406752768 470250 465175 379876 181042
830791471424953856 470385 465315 379865 181045
830791471443155072 470358 465379 379894 181094
830791471461356160 470083 465055 379621 181080
830791471479557248 469693 464736 379369 181094
830791471497758336 469235 464285 379095 181060
830791471515959552 468819 463917 378860 180995
830791471534160640 468474 463515 378643 181042
830791471552361728 468195 463200 378506 181004
830791471570562816 467962 462908 378315 180978
830791471588763904 467819 462741 378317 181030
830791471606965120 467723 462645 378212 181039
830791471625166208 467655 462553 378130 180986
830791471643367296 467612 462506 378049 181003
830791471661568384 467574 462517 378037 181014
830791471679769600 467584 462533 378077 181057
830791471697970688 467583 462584 378091 181103
830791471716171776 467626 462609 378081 181044
830791471734372864 467693 462644 378028 181027
830791471752573952 467633 462657 377963 181044
830791471770775168 467583 462595 377904 181009
830791471788976256 467619 462607 377902 181043
830791471807177344 467543 462652 377854 181027
830791471825378432 467526 462735 377856 181043
830791471843579648 467472 462788 377690 180999
830791471861780736 467610 462809 377692 181040
830791471879981824 467616 463016 377667 181034
830791471898183035 467782 463145 377697 181041
830791471916384512 467936 463289 377758 181068
830791471934585984 468031 463502 377822 181045
830791471952787456 468169 463669 377806 181037
830791471970988928 468250 463901 377824 181031
830791471989190400 468353 464021 377846 181026
830791472007391872 468551 464313 377907 181036
830791472025593344 468715 464535 377987 181009
830791472043794816 468894 464790 378030 181077
830791472061996416 469020 465040 378062 181084
830791472080197888 469121 465238 378044 181051
830791472098399360 469275 465407 378137 181057
830791472116600832 469504 465679 378132 181011
830791472134802304 469638 465797 378205 180968
830791472153003776 469888 466048 378341 181010
830791472171205248 470137 466326 378439 181026
830791472189406720 470329 466438 378482 181036
830791472207608192 470507 466671 378503 181036
830791472225809664 470792 466810 378592 181024
830791472244011136 471084 467129 378721 181057
830791472262212608 471302 467260 378831 181044
830791472280414080 471554 467423 378971 181034
830791472298615552 471552 467444 378983 181026
830791472316817024 471358 467229 378841 180993
830791472335018496 471048 466814 378640 180972
830791472353220096 470751 466506 378454 181016
830791472371421568 470327 466092 378263 181058
830791472389623040 469972 465706 378102 181079
830791472407824512 469721 465353 377926 180972
830791472426025984 469588 465163 377861 181025
830791472444227456 469520 464982 377790 181051
830791472462428928 469435 464810 377669 181035
830791472480630400 469458 464787 377786 180995
830791472498831872 469520 464758 377903 181041
830791472517033344 469583 464716 377961 181007
830791472535234816 469642 464725 378004 180995
830791472553436288 469733 464749 378093 181052
830791472571637760 469786 464667 378191 181008
830791472589839232 469861 464744 378193 181010
830791472608040704 469806 464556 378211 181027
830791472626242176 469805 464552 378261 181025
830791472644443776 469872 464524 378288 181128
830791472662645201 469781 464530 378287 181087
830791472680846848 469744 464509 378283 181079
830791472699048448 469696 464426 378254 181025
830791472717250176 469721 464501 378281 180996
830791472735451776 469775 464523 378272 181030
830791472753653504 469877 464629 378357 181077
830791472771855104 469929 464768 378452 181082
830791472790056832 469992 464899 378474 181018
830791472808258432 470061 464973 378609 181014
830791472826460160 470164 465135 378692 181023
830791472844661760 470272 465227 378747 181031
830791472862863488 470420 465547 378830 181070
830791472881065088 470573 465711 378918 181037
830791472899266816 470730 465903 379053 181079
830791472917468416 470837 466128 379080 181048
830791472935670144 470989 466325 379152 181055
830791472953871744 471213 466563 379327 181060
830791472972073472 471430 466706 379384 181073
830791472990275072 471596 466909 379516 181069
830791473008476800 471731 467064 379619 181071
830791473026678400 471871 467314 379740 181037
830791473044880128 472034 467506 379860 181056
830791473063081728 472159 467625 379914 181033
830791473081283456 472350 467866 380017 181057
830791473099485056 472483 468070 380188 181016
830791473117686784 472589 468124 380173 181014
830791473135888384 472359 467956 380075 181030
830791473154090112 472065 467636 379923 181041
830791473172291712 471584 467160 379609 181031
830791473190493440 471074 466758 379385 181016
830791473208695040 470683 466255 379175 181065
830791473226896640 470345 465947 379004 181030
830791473245098368 470007 465621 378852 181017
830791473263299968 469807 465380 378760 180961
830791473281501696 469703 465231 378746 181013
830791473299703296 469626 465099 378708 180960
830791473317905024 469584 465067 378758 180977
830791473336106624 469557 465021 378799 181018
830791473354308352 469570 465005 378879 181075
830791473372509952 469565 464963 378879 181040
830791473390711680 469618 464989 378971 181062
830791473408913280 469606 464988 378999 181090
830791473427114997 469619 464945 379006 181048
830791473445315200 469622 464847 379017 181000
830791473463515392 469640 464812 379030 181013
830791473481715456 469634 464746 379023 181012
830791473499915648 469633 464748 379023 180970
830791473518115840 469660 464765 379098 181004
830791473536315904 469636 464750 379028 181035
830791473554516096 469748 464800 379102 181026
830791473572716288 469860 464830 379146 181022
830791473590916480 469948 464971 379208 181011
830791473609116544 470074 464971 379248 181051
830791473627316736 470261 465115 379405 181068
830791473645516928 470393 465227 379462 181012
830791473663716992 470601 465416 379545 181076
830791473681917184 470795 465567 379713 181064
830791473700117376 470960 465723 379740 181039
830791473718317440 471174 465893 379852 181017
830791473736517632 471386 466040 379994 181038
830791473754717824 471568 466215 380071 181042
830791473772917888 471684 466336 380120 180984
830791473791118080 471843 466493 380205 181044
830791473809318272 472001 466652 380244 181055
830791473827518464 472170 466788 380368 181005
830791473845718528 472277 466960 380422 181025
830791473863918720 472472 467010 380527 181051
830791473882118912 472576 467191 380599 181043
830791473900318976 472700 467286 380710 181006
830791473918519168 472847 467401 380715 180978
830791473936719360 472924 467525 380810 181012
830791473954919424 472980 467561 380814 181016
830791473973119616 472689 467338 380649 181034
830791473991319808 472240 466861 380340 180992
830791474009519872 471719 466405 380029 181009
830791474027720064 471260 465889 379817 181047
830791474045920256 470695 465399 379454 181072
830791474064120448 470185 464940 379209 181074
830791474082320512 469851 464561 378948 181007
830791474100520704 469575 464253 378798 181007
830791474118720896 469319 464073 378715 181006
830791474136920952 469164 463906 378647 181005
830791474155121920 468999 463725 378544 181045
830791474173322880 468846 463633 378524 181013
830791474191523840 468804 463523 378438 180943
830791474209724672 468766 463494 378398 180982
830791474227925632 468612 463392 378306 180974
830791474246126592 468585 463294 378295 180994
830791474264327552 468509 463277 378270 181024
830791474282528512 468490 463217 378259 181052
830791474300729344 468369 463149 378200 181076
830791474318930304 468283 463054 378166 181087
830791474337131264 468188 462905 378084 181043
830791474355332224 468107 462867 378088 181045
830791474373533184 468076 462835 378054 181034
830791474391734016 468052 462865 377987 181045
830791474409934976 468085 462884 378043 181036
830791474428135936 468122 462917 378081 181043
830791474446336896 468206 462923 378123 181064
830791474464537856 468247 463003 378088 181023
830791474482738816 468320 463091 378098 180992
830791474500939648 468482 463221 378136 181025
830791474519140608 468516 463289 378230 181050
830791474537341568 468700 463404 378316 181097
830791474555542528 468805 463529 378375 181059
830791474573743488 468990 463679 378427 181079
830791474591944320 469107 463794 378542 181081
830791474610145280 469173 463855 378579 181021
830791474628346240 469289 463948 378657 181012
830791474646547200 469425 464055 378711 181034
830791474664748160 469555 464157 378712 181082
830791474682948992 469562 464193 378736 181046
830791474701149952 469628 464238 378764 181069
830791474719350912 469666 464229 378726 181022
830791474737551872 469741 464348 378753 181044
830791474755752832 469861 464466 378848 181057
830791474773953664 469969 464488 378934 181078
830791474792154624 470119 464695 379009 181077
830791474810355584 470169 464812 379018 181059
830791474828556544 470112 464802 379049 181033
830791474846757504 469791 464582 378869 181009
830791474864958360 469414 464217 378675 181011
830791474883159040 469026 463875 378372 181076
830791474901359744 468487 463402 378092 180966
830791474919560320 467997 462926 377892 181042
830791474937761024 467658 462721 377797 181054
830791474955961728 467457 462536 377636 181061
830791474974162304 467293 462384 377571 181031
830791474992363008 467247 462379 377597 181085
830791475010563712 467173 462268 377519 181053
830791475028764288 467214 462315 377594 181062
830791475046964992 467242 462349 377568 181068
830791475065165696 467363 462423 377604 181069
830791475083366272 467428 462489 377606 181017
830791475101566976 467440 462493 377552 181025
830791475119767680 467473 462506 377513 180995
830791475137968256 467434 462309 377346 181018
830791475156168960 467303 462241 377287 181016
830791475174369664 467171 462120 377240 181045
830791475192570240 466987 461976 377133 181008
830791475210770944 466877 461874 377076 181038
830791475228971648 466744 461843 377065 181002
830791475247172224 466708 461722 377003 180953
830791475265372928 466671 461692 377050 180976
830791475283573632 466598 461705 377057 181030
830791475301774208 466647 461839 377127 181056
830791475319974912 466751 461918 377146 181038
830791475338175616 466831 462010 377224 181056
830791475356376192 466933 462113 377282 181006
830791475374576896 467051 462262 377330 181017
830791475392777600 467183 462399 377414 181019
830791475410978176 467326 462575 377549 181009
830791475429178880 467416 462776 377633 181035
830791475447379584 467553 462886 377760 181008
830791475465580160 467773 463059 377872 181040
830791475483780864 467958 463239 378004 181050
830791475501981568 468092 463485 378071 180984
830791475520182144 468328 463614 378199 181026
830791475538382848 468429 463845 378304 180999
830791475556583552 468663 464026 378401 181040
830791475574784151 468821 464215 378549 181003
830791475592985088 469034 464447 378699 181004
830791475611186048 469255 464684 378842 181011
830791475629387008 469492 464833 378925 181020
830791475647587968 469520 464962 378916 181075
830791475665788928 469259 464732 378747 181000
830791475683990016 468852 464335 378550 180994
830791475702190976 468292 463854 378262 181006
830791475720391936 467764 463427 377941 181024
830791475738592896 467259 462901 377780 181051
830791475756793856 466763 462498 377505 181000
830791475774994816 466429 462199 377398 181047
830791475793195776 466199 461965 377347 181031
830791475811396736 466039 461817 377424 181070
830791475829597696 465775 461686 377381 181045
830791475847798784 465707 461553 377497 181051
830791475865999744 465637 461582 377550 181061
830791475884200704 465591 461533 377567 181008
830791475902401664 465602 461569 377630 181021
830791475920602624 465591 461527 377664 180979
830791475938803584 465551 461543 377709 181007
830791475957004544 465555 461508 377676 181047
830791475975205504 465482 461484 377696 181016
830791475993406464 465402 461477 377685 181017
830791476011607552 465297 461412 377617 181005
830791476029808512 465290 461392 377610 181084
830791476048009472 465289 461357 377670 180994
830791476066210432 465330 461377 377718 181054
830791476084411392 465396 461415 377793 181011
830791476102612352 465477 461489 377812 181051
830791476120813312 465619 461663 377885 181053
830791476139014272 465681 461751 377915 181012
830791476157215232 465809 461850 378014 180992
830791476175416320 465981 461981 378147 181034
830791476193617280 466176 462160 378290 181105
830791476211818240 466422 462368 378387 181086
830791476230019200 466516 462440 378476 181081
830791476248220160 466725 462641 378584 181056
830791476266421120 467005 462823 378745 181048
830791476284622150 467164 462978 378883 181050
830791476302822528 467383 463186 378961 181048
830791476321022848 467589 463370 379086 181074
830791476339223168 467808 463473 379172 180971
830791476357423488 468049 463654 379339 181020
830791476375623808 468202 463775 379398 181048
830791476393824000 468459 464003 379495 181093
830791476412024320 468680 464171 379583 181000
830791476430224640 468898 464280 379647 181023
830791476448424960 469097 464476 379801 181053
830791476466625280 469308 464668 379842 181080
830791476484825600 469457 464782 379892 181085
830791476503025920 469386 464674 379802 181069
830791476521226240 469131 464368 379664 181149
830791476539426560 468581 463867 379309 181064
830791476557626880 468041 463252 378916 180991
830791476575827072 467419 462756 378593 181014
830791476594027392 466995 462240 378293 180996
830791476612227712 466572 461853 378054 181056
830791476630428032 466232 461532 377868 181036
830791476648628352 466007 461343 377784 181116
830791476666828672 465867 461029 377656 181073
830791476685028992 465649 460909 377562 181005
830791476703229312 465529 460785 377474 181020
830791476721429632 465455 460639 377368 181067
830791476739629952 465389 460528 377341 181069
830791476757830144 465353 460533 377257 181009
830791476776030464 465296 460475 377227 180993
830791476794230784 465321 460508 377218 181052
830791476812431104 465308 460456 377177 181021
830791476830631424 465261 460368 377166 181021
830791476848831744 465217 460333 377203 181004
830791476867032064 465204 460335 377152 181037
830791476885232384 465169 460263 377123 181041
830791476903432586 465256 460298 377111 181025
830791476921633536 465297 460335 377091 181058
830791476939834496 465375 460371 377119 181089
830791476958035456 465422 460435 377130 181060
830791476976236288 465486 460525 377227 181006
830791476994437248 465585 460632 377223 181028
830791477012638208 465746 460760 377240 180992
830791477030839168 465895 460945 377329 181085
830791477049040128 465997 461069 377298 181038
830791477067240960 466138 461169 377351 181007
830791477085441920 466304 461361 377416 180994
830791477103642880 466505 461536 377501 181017
830791477121843840 466617 461658 377547 181019
830791477140044800 466800 461796 377659 180991
830791477158245632 466966 461910 377646 180955
830791477176446592 467095 462098 377666 180994
830791477194647552 467225 462245 377743 180996
830791477212848512 467394 462362 377843 180978
830791477231049472 467514 462467 377953 181008
830791477249250304 467681 462659 377978 180991
830791477267451264 467857 462795 378061 180972
830791477285652224 468067 462922 378195 181050
830791477303853184 468190 463110 378252 181022
830791477322054144 468393 463275 378329 181010
830791477340255104 468625 463504 378536 181028
830791477358455936 468765 463608 378532 181027
830791477376656896 468827 463690 378585 181054
830791477394857856 468578 463495 378480 181004
830791477413058816 468300 463157 378262 181035
830791477431259776 467700 462641 377936 180993
830791477449460608 467157 462184 377666 180962
830791477467661568 466655 461669 377436 181011
830791477485862528 466162 461204 377156 181047
830791477504063488 465857 460896 377016 181078
830791477522264448 465552 460642 376880 181055
830791477540465280 465336 460390 376740 181041
830791477558666240 465167 460245 376682 180973
830791477576867200 465113 460195 376660 180969
830791477595068120 464999 460136 376685 180975
830791477613269888 465041 460111 376633 181004
830791477631471616 465039 460112 376655 180999
830791477649673216 465031 460185 376660 181040
830791477667874944 465039 460197 376645 180988
830791477686076672 465057 460130 376702 181031
830791477704278272 465040 460109 376669 180992
830791477722480000 465083 460077 376620 181020
830791477740681600 464999 460067 376622 181010
830791477758883328 465016 459990 376564 181002
830791477777085056 465001 460013 376575 180961
830791477795286656 465011 460050 376608 181030
830791477813488384 465118 460148 376607 181022
830791477831690112 465178 460213 376669 180981
830791477849891712 465227 460324 376744 180922
830791477868093440 465427 460405 376827 180979
830791477886295040 465579 460552 376896 180996
830791477904496768 465798 460718 377028 181014
830791477922698496 465904 460854 377074 180978
830791477940900096 466065 461043 377124 181003
830791477959101824 466209 461119 377211 181011
830791477977303552 466455 461397 377426 181057
830791477995505152 466623 461547 377462 181060
830791478013706880 466837 461720 377492 181069
830791478031908480 467019 461943 377664 181051
830791478050110208 467211 462021 377742 180973
830791478068311936 467379 462224 377860 181026
830791478086513536 467600 462412 377965 180983
830791478104715264 467814 462598 378053 181010
830791478122916992 467994 462781 378151 181002
830791478141118592 468106 462923 378208 181021
830791478159320320 468305 463121 378358 180987
830791478177521920 468517 463268 378453 180985
830791478195723648 468653 463421 378535 181038
830791478213925376 468877 463687 378692 181016
830791478232126976 469051 463828 378815 181014
830791478250328704 469328 464104 378889 180954
830791478268530432 469562 464328 378996 180964
830791478286732032 469676 464459 379083 180986
830791478304933760 469817 464543 379188 180985
830791478323135488 469659 464432 379067 181059
830791478341337088 469240 464091 378846 181082
830791478359538816 468805 463631 378629 180993
830791478377740381 468348 463219 378338 181027
830791478395942016 467846 462711 378084 180967
830791478414143616 467544 462407 377864 181002
830791478432345216 467250 462116 377684 181023
830791478450546944 467077 461942 377672 181011
830791478468748544 466895 461766 377581 181008
830791478486950144 466845 461734 377554 181087
830791478505151744 466773 461668 377567 181021
830791478523353344 466808 461647 377606 181075
830791478541555072 466845 461666 377565 181021
830791478559756672 466918 461799 377693 181069
830791478577958272 466930 461798 377665 181052
830791478596159872 466935 461760 377619 181020
830791478614361472 466924 461751 377624 180991
830791478632563200 466888 461790 377663 180981
830791478650764800 466925 461779 377685 181038
830791478668966400 466933 461740 377687 181031
830791478687168000 466920 461726 377724 181069
830791478705369600 466976 461697 377718 181047
830791478723571328 467004 461763 377726 181004
830791478741772928 467046 461822 377780 181018
830791478759974528 467173 461934 377876 181089
830791478778176128 467311 462050 377862 181028
830791478796377728 467456 462247 377997 181061
830791478814579456 467558 462306 378065 181062
830791478832781056 467740 462469 378141 181033
830791478850982656 467951 462587 378220 181093
830791478869184256 468089 462735 378375 181048
830791478887385856 468312 462951 378449 181051
830791478905587584 468474 463125 378559 181051
830791478923789184 468673 463319 378643 181043
830791478941990784 468820 463502 378762 181014
830791478960192384 469022 463549 378831 181045
830791478978393984 469213 463782 378879 181053
830791478996595712 469406 463954 379010 181034
830791479014797312 469601 464071 379065 180991
830791479032998912 469781 464275 379156 181009
830791479051200512 469982 464430 379321 181039
830791479069402112 470121 464650 379481 181018
830791479087603840 470318 464784 379564 181080
830791479105805440 470504 464997 379636 181008
830791479124007040 470723 465144 379768 180990
830791479142208651 470901 465315 379852 181025
830791479160409216 471121 465568 379955 181067
830791479178609792 471089 465572 379923 180991
830791479196810368 470979 465488 379846 181042
830791479215010944 470591 465167 379649 181006
830791479233211520 470298 464743 379461 181000
830791479251412096 469841 464346 379224 180995
830791479269612672 469384 463869 378952 181091
830791479287813248 468977 463528 378705 181079
830791479306013824 468634 463217 378566 181040
830791479324214400 468489 463012 378430 181057
830791479342414976 468366 462948 378414 181026
830791479360615552 468237 462869 378363 180978
830791479378816128 468278 462736 378321 180999
830791479397016704 468240 462740 378283 180987
830791479415217280 468238 462782 378313 181056
830791479433417856 468316 462793 378369 181046
830791479451618304 468360 462907 378427 181069
830791479469818880 468452 462931 378466 181050
830791479488019456 468496 463000 378482 181019
830791479506220032 468524 462967 378449 181034
830791479524420608 468626 463064 378501 181039
830791479542621184 468646 463030 378524 181031
830791479560821760 468646 463003 378531 181060
830791479579022336 468633 463070 378551 181086
830791479597222912 468697 463031 378518 181077
830791479615423488 468810 463182 378557 181075
830791479633624064 468854 463260 378640 181042
830791479651824640 468906 463294 378666 181040
830791479670025216 469118 463474 378795 181027
830791479688225792 469271 463613 378882 181095
830791479706426368 469421 463725 379009 181029
830791479724626944 469603 463910 379037 181043
830791479742827520 469743 464044 379146 181037
830791479761028096 469970 464258 379206 181069
830791479779228672 470119 464449 379331 181027
830791479797429248 470306 464650 379442 181048
830791479815629824 470537 464893 379612 181087
830791479833830400 470687 465023 379653 180988
830791479852030976 470865 465185 379748 181020
830791479870231552 471076 465418 379829 181002
830791479888432128 471270 465563 379902 181027
830791479906632669 471488 465724 380022 181003
830791479924832768 471651 465939 380118 181029
830791479943032832 471824 466132 380224 181022
830791479961233024 472026 466239 380304 181023
830791479979433088 472244 466466 380433 181026
830791479997633152 472477 466638 380597 181053
830791480015833216 472638 466808 380711 181014
830791480034033408 472926 467020 380832 181060
830791480052233472 473035 467194 380942 181051
830791480070433536 473216 467397 381082 181036
830791480088633728 473443 467541 381133 181073
830791480106833792 473507 467576 381167 181098
830791480125033856 473335 467359 381046 181067
830791480143233920 472944 467027 380840 181037
830791480161434112 472448 466660 380596 181021
830791480179634176 471996 466236 380348 181017
830791480197834240 471633 465880 380097 181040
830791480216034304 471266 465525 379885 181014
830791480234234496 470900 465279 379765 180984
830791480252434560 470795 465100 379629 181002
830791480270634624 470704 464978 379634 181043
830791480288834816 470580 464903 379621 181005
830791480307034880 470525 464810 379560 180990
830791480325234944 470564 464870 379614 181039
830791480343435008 470551 464834 379608 181012
830791480361635200 470625 464852 379624 180995
830791480379835264 470628 464916 379635 181004
830791480398035328 470734 464921 379703 181030
830791480416235520 470673 464905 379620 180982
830791480434435584 470647 464972 379663 180982
830791480452635648 470682 464936 379647 181002
830791480470835712 470721 464957 379647 181069
830791480489035904 470716 464946 379671 181072
830791480507235968 470730 464987 379644 181034
830791480525436032 470739 464953 379652 181012
830791480543636096 470831 465033 379729 180983
830791480561836288 470896 465057 379710 180966
830791480580036352 470970 465185 379789 180991
830791480598236416 471122 465302 379856 180962
830791480616436608 471275 465442 379899 180950
830791480634636672 471410 465633 380004 181038
830791480652836736 471566 465735 380094 181016
830791480671036853 471755 465901 380267 181028
830791480689238528 471931 466092 380262 181029
830791480707440256 472130 466202 380326 180949
830791480725641984 472313 466365 380409 180991
830791480743843712 472517 466593 380563 181040
830791480762045440 472689 466734 380696 180999
830791480780247168 472915 466926 380783 181001
830791480798448896 473092 467109 380898 180996
830791480816650624 473247 467252 380973 181050
830791480834852352 473333 467475 381132 181026
830791480853054080 473538 467575 381217 181052
830791480871255936 473704 467753 381263 181048
830791480889457664 473890 467913 381293 180979
830791480907659392 474074 468160 381452 180995
830791480925861120 474272 468272 381535 180968
830791480944062848 474428 468391 381595 180979
830791480962264576 474601 468613 381745 181014
830791480980466304 474807 468787 381836 181047
830791480998668032 474982 468984 381964 180960
830791481016869760 475208 469140 382019 181003
830791481035071488 475320 469313 382078 181038
830791481053273216 475221 469211 382006 181041
830791481071474944 474901 468950 381850 181025
830791481089676672 474606 468624 381691 181038
830791481107878400 474163 468243 381424 181024
830791481126080128 473818 467922 381251 181094
830791481144281856 473337 467497 381002 181011
830791481162483584 473057 467242 380871 181031
830791481180685312 472879 467019 380776 181052
830791481198887040 472737 466954 380715 181019
830791481217088768 472634 466877 380639 181028
830791481235290624 472572 466827 380659 181006
830791481253492352 472559 466835 380614 180976
830791481271694080 472651 466895 380672 181059
830791481289895808 472680 466911 380745 181065
830791481308097536 472743 466967 380778 181004
830791481326299264 472765 467062 380832 181075
830791481344500992 472782 467058 380740 181014
830791481362702720 472782 467045 380777 181056
830791481380904448 472775 467022 380806 181035
830791481399106176 472631 467032 380761 181036
830791481417307904 472667 467047 380806 181031
830791481435509701 472711 466989 380768 181067
830791481453711360 472744 467034 380776 181003
830791481471912960 472820 467128 380790 181033
830791481490114688 472806 467182 380844 181056
830791481508316288 472914 467188 380897 181030
830791481526518016 472950 467265 380908 181048
830791481544719616 473101 467343 380985 181004
830791481562921344 473168 467561 381056 181068
830791481581122944 473245 467642 381084 180961
830791481599324672 473479 467819 381204 181022
830791481617526272 473591 467913 381254 180999
830791481635728000 473816 468056 381347 181048
830791481653929600 473908 468153 381457 181038
830791481672131328 474111 468397 381606 181067
830791481690332928 474244 468529 381708 181040
830791481708534656 474348 468631 381714 181042
830791481726736256 474565 468802 381835 181044
830791481744937984 474667 468955 381854 181062
830791481763139584 474815 469139 381958 181025
830791481781341312 474901 469283 382058 181047
830791481799542912 475159 469446 382142 181026
830791481817744640 475311 469546 382205 181055
830791481835946240 475443 469699 382278 181036
830791481854147968 475524 469859 382358 181035
830791481872349568 475687 470004 382478 181001
830791481890551296 475849 470212 382641 181040
830791481908752896 476021 470340 382663 181023
830791481926954624 476084 470387 382674 181025
830791481945156224 475971 470265 382600 181065
830791481963357952 475721 470017 382456 181041
830791481981559552 475350 469638 382225 181051
830791481999761152 474858 469160 381941 180990
830791482017962880 474427 468802 381674 181038
830791482036164480 474024 468483 381540 181084
830791482054366208 473715 468197 381413 181037
830791482072567808 473493 467963 381273 181048
830791482090769536 473309 467776 381185 181028
830791482108971136 473284 467728 381178 181088
830791482127172864 473170 467655 381075 181045
830791482145374464 473167 467589 381183 181050
830791482163576192 473131 467629 381118 181052
830791482181777792 473161 467672 381144 181036
830791482199979495 473199 467695 381143 181010
830791482218180864 473246 467718 381148 180988
830791482236382208 473291 467764 381221 181037
830791482254583552 473273 467695 381218 180971
830791482272784896 473286 467681 381153 181042
830791482290986240 473217 467675 381147 180976
830791482309187584 473214 467588 381151 180976
830791482327389056 473160 467582 381078 181002
830791482345590400 473145 467578 381116 181016
830791482363791744 473201 467646 381108 181042
830791482381993088 473303 467698 381180 181047
830791482400194432 473280 467705 381188 181034
830791482418395776 473386 467786 381259 181019
830791482436597120 473546 467926 381336 181023
830791482454798464 473669 468032 381442 181060
830791482472999808 473781 468185 381517 181054
830791482491201152 473910 468280 381594 181048
830791482509402496 474059 468465 381714 181085
830791482527603840 474262 468630 381876 181097
830791482545805312 474398 468790 381933 181098
830791482564006656 474483 468977 381950 181022
830791482582208000 474692 469085 381949 181061
830791482600409344 474874 469228 382107 180991
830791482618610688 474989 469413 382208 181008
830791482636812032 475099 469603 382315 181013
830791482655013376 475250 469719 382383 181031
830791482673214720 475467 469856 382425 181037
830791482691416064 475658 470027 382575 181034
830791482709617408 475791 470167 382605 181035
830791482727818752 475984 470306 382753 181031
830791482746020096 476143 470485 382848 181020
830791482764221568 476355 470642 382913 180986
830791482782422912 476467 470784 383061 180966
830791482800624256 476661 470966 383153 180983
830791482818825600 476733 471051 383145 181021
830791482837026944 476604 470973 383098 181062
830791482855228288 476245 470654 382941 180989
830791482873429632 475856 470216 382664 181029
830791482891630976 475390 469809 382361 181086
830791482909832320 474845 469380 382044 181005
830791482928033689 474456 468970 381906 181064
830791482946235008 474095 468605 381730 181048
830791482964436352 473903 468448 381606 181041
830791482982637696 473655 468270 381553 181057
830791483000839040 473528 468102 381438 181065
830791483019040256 473464 468025 381436 181039
830791483037241600 473343 467948 381411 181013
830791483055442944 473276 467901 381368 181021
830791483073644288 473275 467940 381395 181023
830791483091845632 473335 467946 381416 181037
830791483110046976 473272 467906 381376 181044
830791483128248320 473274 467876 381355 181082
830791483146449536 473258 467856 381367 181040
830791483164650880 473253 467813 381382 181065
830791483182852224 473151 467744 381287 181010
830791483201053568 473105 467722 381323 181037
830791483219254912 473086 467738 381295 181064
830791483237456256 473084 467694 381273 181040
830791483255657600 473146 467709 381357 181125
830791483273858944 473156 467690 381326 180991
830791483292060160 473140 467764 381355 181069
830791483310261504 473232 467843 381412 181092
830791483328462848 473289 467860 381436 181038
830791483346664192 473387 468014 381506 181038
830791483364865536 473537 468149 381643 181077
830791483383066880 473677 468266 381719 181061
830791483401268224 473732 468349 381773 181043
830791483419469440 473885 468490 381839 181041
830791483437670784 474015 468669 381950 181009
830791483455872128 474197 468815 382032 181047
830791483474073472 474332 468917 382131 181094
830791483492274816 474464 468991 382184 181062
830791483510476160 474516 469174 382221 181012
830791483528677504 474705 469322 382271 181050
830791483546878720 474893 469428 382360 181082
830791483565080064 475020 469568 382430 181062
830791483583281408 475250 469745 382590 181074
830791483601482752 475273 469838 382597 180989
830791483619684096 475412 469969 382700 181009
830791483637885422 475588 470142 382777 181023
830791483656086784 475668 470274 382848 180970
830791483674288128 475939 470388 383013 181000
830791483692489472 476028 470525 383031 180987
830791483710690816 476263 470760 383178 181073
830791483728892032 476321 470808 383190 180979
830791483747093376 476205 470701 383148 181036
830791483765294720 475864 470439 382926 181020
830791483783496064 475471 470074 382741 181058
830791483801697408 474956 469655 382531 181051
830791483819898752 474379 469162 382203 180990
830791483838100096 473965 468720 381922 181082
830791483856301312 473608 468387 381723 181005
830791483874502656 473321 468214 381658 181077
830791483892704000 473137 467986 381534 181072
830791483910905344 473020 467831 381485 181051
830791483929106688 472884 467698 381402 181023
830791483947308032 472851 467706 381464 181091
830791483965509376 472792 467614 381424 181011
830791483983710720 472805 467653 381417 181060
830791484001911936 472847 467629 381403 181075
830791484020113280 472762 467626 381424 181097
830791484038314624 472759 467607 381452 181036
830791484056515968 472706 467583 381434 180978
830791484074717312 472723 467601 381402 181057
830791484092918656 472677 467508 381405 181096
830791484111120000 472568 467451 381339 181065
830791484129321216 472522 467440 381286 181028
830791484147522560 472551 467412 381269 180975
830791484165723904 472588 467419 381296 181060
830791484183925248 472608 467441 381290 181051
830791484202126592 472621 467424 381355 180978
830791484220327936 472671 467501 381367 180961
830791484238529280 472763 467574 381404 181012
830791484256730496 472893 467692 381529 181023
830791484274931840 472997 467804 381586 181077
830791484293133184 473141 467910 381638 181045
830791484311334528 473260 468048 381746 181089
830791484329535872 473376 468185 381740 181004
830791484347737153 473559 468325 381878 181028
830791484365938176 473633 468453 381909 181014
830791484384139136 473703 468540 381970 180943
830791484402340096 473886 468664 382018 180985
830791484420540928 474075 468830 382156 181008
830791484438741888 474161 468957 382226 181008
830791484456942848 474281 469128 382287 181018
830791484475143808 474480 469207 382309 181057
830791484493344768 474572 469336 382418 181041
830791484511545600 474731 469495 382526 181040
830791484529746560 474868 469614 382584 181014
830791484547947520 474949 469756 382646 181075
830791484566148480 475177 469865 382707 181084
830791484584349440 475297 470069 382810 181039
830791484602550272 475454 470294 382901 181017
830791484620751232 475658 470390 382991 181022
830791484638952192 475756 470465 383099 181039
830791484657153152 475709 470437 383029 180974
830791484675354112 475477 470283 382920 181041
830791484693555072 475127 469953 382678 181023
830791484711755904 474658 469556 382408 181044
830791484729956864 474135 469067 382167 181072
830791484748157824 473661 468622 381895 181069
830791484766358784 473287 468346 381713 181044
830791484784559744 472998 468004 381598 181060
830791484802760576 472855 467892 381579 181051
830791484820961536 472680 467729 381436 181053
830791484839162496 472588 467669 381433 181048
830791484857363456 472546 467635 381423 181034
830791484875564416 472503 467572 381424 181089
830791484893765248 472521 467624 381412 181093
830791484911966208 472484 467604 381455 181086
830791484930167168 472474 467585 381428 181031
830791484948368128 472464 467576 381451 181080
830791484966569088 472426 467513 381434 181077
830791484984769920 472342 467506 381348 181064
830791485002970880 472333 467436 381366 181045
830791485021171756 472170 467325 381272 181047
830791485039373440 472144 467275 381279 181078
830791485057575168 472100 467186 381269 181089
830791485075776896 472022 467201 381208 181085
830791485093978624 472078 467250 381190 181102
830791485112180352 472119 467179 381196 181097
830791485130382080 472158 467250 381239 181064
830791485148583808 472257 467386 381333 181061
830791485166785408 472287 467470 381369 181089
830791485184987136 472427 467564 381406 181097
830791485203188864 472559 467687 381467 181077
830791485221390592 472694 467730 381565 181076
830791485239592320 472819 467887 381580 181019
830791485257794048 472939 468046 381698 181086
830791485275995776 473052 468167 381705 181050
830791485294197504 473139 468306 381818 181089
830791485312399232 473340 468359 381873 181059
830791485330600960 473467 468492 381951 181013
830791485348802688 473613 468679 382055 181043
830791485367004416 473736 468756 382118 181037
830791485385206016 473819 468872 382143 181080
830791485403407744 473937 468989 382187 181057
830791485421609472 474082 469173 382275 181082
830791485439811200 474262 469230 382313 181120
830791485458012928 474367 469349 382406 181073
830791485476214656 474379 469521 382522 181042
830791485494416384 474553 469664 382579 181078
830791485512618112 474656 469689 382560 181097
830791485530819840 474462 469540 382494 181055
830791485549021568 474074 469169 382236 181050
830791485567223296 473613 468754 381983 181023
830791485585425024 473066 468269 381702 181035
830791485603626752 472551 467847 381425 181076
830791485621828352 472023 467388 381133 181014
830791485640030080 471697 467091 380972 181033
830791485658231808 471436 466831 380826 181019
830791485676433536 471269 466666 380803 181075
830791485694635264 471062 466558 380741 181078
830791485712836992 470986 466433 380613 181064
830791485731038747 470942 466322 380548 181031
830791485749240448 470887 466309 380567 181029
830791485767442176 470921 466335 380593 181065
830791485785643904 470863 466310 380540 181075
830791485803845504 470846 466237 380494 181067
830791485822047232 470793 466243 380502 181088
830791485840248960 470815 466230 380532 181073
830791485858450688 470647 466102 380419 180985
830791485876652288 470613 466013 380354 181057
830791485894854016 470579 465942 380345 181019
830791485913055744 470509 465863 380300 181025
830791485931257472 470474 465868 380333 181057
830791485949459072 470498 465866 380309 181046
830791485967660800 470535 465877 380303 181017
830791485985862528 470532 465905 380382 181019
830791486004064256 470664 466021 380464 181072
830791486022265984 470767 466122 380451 181064
830791486040467584 470806 466217 380558 181039
830791486058669312 470989 466242 380552 181005
830791486076871040 471104 466503 380673 181120
830791486095072768 471275 466620 380770 181041
830791486113274368 471313 466699 380758 181089
830791486131476096 471532 466859 380871 181070
830791486149677824 471609 466926 380974 181057
830791486167879552 471821 467131 380977 181106
830791486186081152 471995 467220 381081 181101
830791486204282880 472124 467322 381185 181078
830791486222484608 472232 467458 381201 181050
830791486240686336 472350 467574 381338 181042
830791486258887936 472501 467729 381370 181034
830791486277089664 472652 467902 381454 181122
830791486295291392 472775 468019 381500 181053
830791486313493120 472927 468196 381607 181054
830791486331694848 473049 468304 381700 181034
830791486349896448 473240 468435 381758 181043
830791486368098176 473412 468614 381849 181092
830791486386299904 473543 468779 381863 181039
830791486404501632 473495 468750 381868 180969
830791486422703232 473333 468591 381699 181053
830791486440904960 472929 468259 381485 181005
830791486459106673 472358 467725 381178 181021
830791486477307648 471803 467270 380881 181058
830791486495508608 471336 466852 380608 181064
830791486513709568 470861 466428 380368 181036
830791486531910400 470542 466089 380180 181063
830791486550111360 470255 465833 380030 181082
830791486568312320 470076 465648 379920 181061
830791486586513280 469875 465504 379876 181064
830791486604714240 469804 465474 379814 181057
830791486622915072 469743 465372 379794 181046
830791486641116032 469722 465316 379803 181041
830791486659316992 469726 465335 379765 181077
830791486677517952 469632 465269 379723 181013
830791486695718912 469665 465295 379704 181028
830791486713919744 469608 465209 379695 181070
830791486732120704 469611 465236 379737 181162
830791486750321664 469516 465126 379662 181053
830791486768522624 469415 465052 379606 181060
830791486786723584 469391 465004 379562 181063
830791486804924544 469394 464990 379597 181057
830791486823125376 469327 464967 379523 181046
830791486841326336 469365 464910 379518 181077
830791486859527296 469348 464949 379547 181028
830791486877728256 469477 465025 379579 181056
830791486895929216 469538 465053 379548 181060
830791486914130048 469647 465237 379642 181069
830791486932331008 469769 465339 379746 181053
830791486950531968 469880 465445 379772 181043
830791486968732928 470060 465531 379847 181029
830791486986933888 470189 465732 379950 181053
830791487005134720 470345 465851 380070 181046
830791487023335680 470454 466049 380093 180985
830791487041536640 470558 466116 380125 181034
830791487059737600 470757 466295 380295 181028
830791487077938560 470931 466483 380338 181040
830791487096139392 471040 466634 380432 181026
830791487114340352 471149 466717 380485 181035
830791487132541312 471321 466881 380605 181030
830791487150742272 471482 467047 380659 181014
830791487168943232 471703 467116 380688 181045
830791487187144064 471733 467233 380772 181053
830791487205345024 471997 467423 380837 181067
830791487223545951 472109 467556 380920 181051
830791487241746944 472324 467790 381053 181065
830791487259947904 472465 467870 381184 181013
830791487278148864 472609 468144 381249 181035
830791487296349696 472829 468264 381336 181037
830791487314550656 472898 468378 381378 181064
830791487332751616 472693 468248 381267 181030
830791487350952576 472247 467822 380965 181007
830791487369153536 471792 467427 380707 181073
830791487387354368 471304 466961 380375 181016
830791487405555328 470757 466503 380125 181009
830791487423756288 470418 466166 379957 181105
830791487441957248 470023 465834 379704 181040
830791487460158208 469792 465473 379619 181022
830791487478359040 469619 465417 379629 181042
830791487496560000 469475 465292 379499 181035
830791487514760960 469414 465244 379432 181072
830791487532961920 469409 465210 379501 181122
830791487551162880 469382 465186 379473 181037
830791487569363840 469429 465224 379497 181048
830791487587564672 469476 465176 379493 181065
830791487605765632 469455 465268 379461 181074
830791487623966592 469378 465229 379458 181075
830791487642167552 469403 465153 379419 181065
830791487660368512 469369 465098 379436 181028
830791487678569344 469277 465074 379365 181040
830791487696770304 469246 465034 379316 181087
830791487714971264 469270 464956 379324 181050
830791487733172224 469260 464976 379350 181090
830791487751373184 469207 464998 379299 181061
830791487769574016 469277 464961 379326 181070
830791487787774976 469340 465103 379404 181068
830791487805975936 469470 465199 379444 181139
830791487824176896 469588 465278 379479 181056
830791487842377856 469673 465410 379586 181084
830791487860578688 469822 465546 379626 181068
830791487878779648 469989 465653 379678 181039
830791487896980608 470141 465811 379767 181057
830791487915181568 470308 465951 379904 181017
830791487933382424 470424 466097 379879 181071
830791487951584128 470606 466247 379979 181008
830791487969785856 470781 466370 380128 181063
830791487987987584 470952 466532 380144 181093
830791488006189312 471072 466690 380207 181018
830791488024391040 471239 466845 380327 181027
830791488042592768 471413 466977 380415 181040
830791488060794496 471615 467100 380534 181054
830791488078996352 471729 467185 380564 181019
830791488097198080 471850 467380 380690 181016
830791488115399808 471988 467536 380787 181041
830791488133601536 472141 467736 380797 181061
830791488151803264 472343 467882 380864 181053
830791488170004992 472516 468049 380924 181057
830791488188206720 472679 468213 381114 181039
830791488206408448 472786 468377 381172 181041
830791488224610176 472910 468392 381219 181080
830791488242811904 472708 468271 381057 181062
830791488261013632 472338 467943 380880 181035
830791488279215360 471894 467521 380635 181019
830791488297417216 471380 467072 380369 180988
830791488315618944 470884 466663 380039 181030
830791488333820672 470488 466296 379836 180985
830791488352022400 470210 465991 379705 181027
830791488370224128 469974 465821 379567 181051
830791488388425856 469828 465607 379444 180996
830791488406627584 469747 465548 379466 181048
830791488424829312 469747 465496 379460 181039
830791488443031040 469720 465519 379482 181038
830791488461232768 469813 465565 379478 181056
830791488479434496 469838 465550 379490 181055
830791488497636224 469903 465596 379543 181029
830791488515837952 469857 465575 379529 181020
830791488534039808 469931 465591 379542 181022
830791488552241536 469813 465585 379524 181031
830791488570443264 469799 465568 379459 181063
830791488588644992 469708 465501 379476 181045
830791488606846720 469654 465436 379506 181135
830791488625048480 469619 465402 379427 181084
830791488643250048 469685 465457 379452 181097
830791488661451648 469681 465381 379387 181070
830791488679653120 469755 465388 379414 181051
830791488697854720 469835 465502 379482 181045
830791488716056192 469938 465603 379517 181073
830791488734257792 470055 465678 379587 181103
830791488752459264 470196 465801 379689 181116
830791488770660864 470277 465972 379822 181068
830791488788862464 470433 466106 379820 181040
830791488807063936 470629 466200 379873 181053
830791488825265536 470806 466312 379976 181020
830791488843467008 470943 466539 380056 181077
830791488861668608 471093 466648 380111 181048
830791488879870080 471336 466832 380256 181056
830791488898071680 471433 467013 380316 181050
830791488916273280 471614 467167 380402 181055
830791488934474752 471752 467319 380454 181047
830791488952676352 471918 467445 380559 181023
830791488970877824 472061 467536 380626 181019
830791488989079424 472185 467696 380761 181047
830791489007280896 472332 467874 380808 180995
830791489025482496 472555 468056 380879 181034
830791489043684096 472711 468198 380993 181027
830791489061885568 472843 468322 381097 181014
830791489080087168 472813 468373 381118 181029
830791489098288640 472676 468198 381007 181102
830791489116490240 472303 467837 380682 181072
830791489134691840 471806 467373 380393 181080
830791489152893312 471326 466904 380144 181035
830791489171094912 470764 466460 379873 181011
830791489189296384 470365 466093 379643 181071
830791489207497984 470078 465749 379506 181055
830791489225699456 469911 465573 379467 181098
830791489243901056 469738 465371 379308 181056
830791489262102656 469673 465355 379306 180999
830791489280304128 469572 465230 379257 181006
830791489298505728 469561 465220 379265 181008
830791489316707200 469602 465266 379257 181069
830791489334908800 469631 465305 379309 181077
830791489353110302 469667 465262 379381 181068
830791489371310592 469614 465240 379317 180957
830791489389510912 469652 465250 379326 181044
830791489407711360 469613 465212 379317 180981
830791489425911680 469561 465164 379216 181022
830791489444112000 469573 465194 379246 181030
830791489462312448 469550 465131 379216 181030
830791489480512768 469493 465102 379231 181030
830791489498713216 469508 465114 379214 181057
830791489516913536 469605 465131 379240 181036
830791489535113856 469669 465165 379299 181064
830791489553314304 469765 465198 379335 181045
830791489571514624 469865 465315 379399 181031
830791489589714944 470069 465454 379550 181088
830791489607915392 470110 465559 379541 181080
830791489626115712 470272 465690 379623 181071
830791489644316160 470430 465841 379734 181091
830791489662516480 470623 465994 379791 181105
830791489680716800 470791 466211 379932 181067
830791489698917248 470933 466329 379955 181054
830791489717117568 471107 466501 380042 181006
830791489735317888 471244 466591 380109 181018
830791489753518336 471441 466795 380246 181086
830791489771718656 471613 466978 380354 181103
830791489789919104 471775 467139 380455 181109
830791489808119424 471909 467283 380517 181068
830791489826319744 472042 467391 380565 181047
830791489844520192 472221 467514 380647 181062
830791489862720512 472353 467749 380768 181065
830791489880920832 472624 467952 380867 181108
830791489899121280 472785 468077 380978 181067
830791489917321600 472919 468183 381084 181064
830791489935521920 473126 468380 381147 181072
830791489953722368 473098 468421 381095 181042
830791489971922688 472850 468185 381009 181096
830791489990123136 472382 467779 380715 181030
830791490008323456 471900 467368 380511 181052
830791490026523776 471419 466916 380194 181076
830791490044724224 470948 466506 379958 181097
830791490062924544 470539 466087 379746 181098
830791490081124864 470253 465772 379595 181069
830791490099325312 470018 465614 379467 181058
830791490117525632 469733 465423 379351 181040
830791490135726101 469459 465454 379283 181111
830791490153928064 469177 465418 379092 181054
830791490172130048 468939 465507 379136 181034
830791490190332032 468799 465497 379099 181057
830791490208534016 468681 465596 379090 181023
830791490226736000 468587 465627 379104 181039
830791490244937984 468489 465655 379050 181051
830791490263139968 468400 465599 379016 181057
830791490281341952 468327 465522 379037 181007
830791490299543936 468169 465392 378944 181024
830791490317745920 468084 465347 378884 181031
830791490335947904 467969 465257 378830 181045
830791490354149888 467773 465243 378852 181011
830791490372351872 467851 465257 378851 181028
830791490390553856 467749 465219 378879 181027
830791490408755968 467735 465243 378919 181000
830791490426957952 467751 465247 378892 181065
830791490445159936 467725 465170 378920 181054
830791490463361920 467642 465129 379013 181023
830791490481563904 467689 465107 379026 181005
830791490499765888 467680 465027 379133 181011
830791490517967872 467606 465033 379310 181026
830791490536169856 467604 464930 379466 180992
830791490554371840 467712 464875 379601 180995
830791490572573824 467778 464811 379761 181023
830791490590775808 467867 464800 379874 181033
830791490608977792 467998 464813 379944 181038
830791490627179776 468213 464811 380051 181035
830791490645381760 468438 464844 380211 181003
830791490663583744 468634 464930 380404 181004
830791490681785728 468805 464961 380546 181030
830791490699987712 469117 465016 380710 181014
830791490718189696 469419 465121 380871 181040
830791490736391680 469648 465236 381083 180982
830791490754593664 469896 465309 381333 180970
830791490772795648 470221 465543 381580 180999
830791490790997632 470496 465676 381871 181013
830791490809199616 470773 465830 382120 180982
830791490827401600 470959 465913 382375 181069
830791490845603584 470953 465825 382376 181052
830791490863805568 470756 465625 382332 181059
830791490882007680 470372 465217 382213 180993
830791490900209631 470008 464834 382102 181008
830791490918411392 469672 464480 381971 181043
830791490936613120 469347 464103 381854 181028
830791490954814848 469087 463820 381861 181076
830791490973016576 468861 463532 381781 181021
830791490991218304 468695 463289 381878 181091
830791491009420032 468658 463202 381990 181078
830791491027621760 468629 463056 382040 181056
830791491045823488 468613 462907 382207 181046
830791491064025216 468647 462822 382347 180978
830791491082226944 468771 462803 382594 180947
830791491100428800 468880 462787 382769 180993
830791491118630528 468958 462681 382907 181012
830791491136832256 469075 462649 383061 181017
830791491155033984 468996 462646 383172 180959
830791491173235712 469016 462629 383223 180969
830791491191437440 468960 462672 383281 180979
830791491209639168 469017 462711 383299 180973
830791491227840896 468922 462656 383331 181026
830791491246042624 468914 462667 383351 181011
830791491264244352 468901 462693 383395 180970
830791491282446080 468901 462756 383428 181018
830791491300647808 468958 462769 383400 180999
830791491318849536 468981 462909 383517 181036
830791491337051264 469039 462976 383554 180906
830791491355252992 469138 463093 383682 180990
830791491373454720 469199 463219 383732 181041
830791491391656448 469389 463377 383872 181014
830791491409858176 469495 463473 383957 180994
830791491428059904 469621 463669 384137 180977
830791491446261632 469764 463778 384194 180999
830791491464463488 469925 463936 384295 180987
830791491482665216 470049 464106 384408 181046
830791491500866944 470189 464228 384483 180985
830791491519068672 470383 464464 384625 180988
830791491537270400 470539 464601 384777 181045
830791491555472128 470764 464760 384879 181021
830791491573673856 470964 465002 385131 181022
830791491591875584 471051 465131 385244 180972
830791491610077312 471271 465320 385349 181014
830791491628279040 471448 465503 385490 181057
830791491646480768 471625 465710 385625 181042
830791491664682479 471780 465810 385722 181060
830791491682883456 471906 466023 385888 180964
830791491701084416 472139 466228 386026 180994
830791491719285504 472385 466438 386189 181042
830791491737486464 472371 466467 386277 181002
830791491755687424 472250 466400 386236 180987
830791491773888512 472000 466119 386128 180976
830791491792089472 471559 465913 385911 180919
830791491810290560 471200 465507 385758 180979
830791491828491520 470791 465217 385619 181027
830791491846692480 470425 464901 385390 180988
830791491864893568 470160 464688 385322 180982
830791491883094528 469961 464573 385204 181004
830791491901295488 469863 464443 385141 181051
830791491919496576 469691 464410 385044 181059
830791491937697536 469653 464361 385040 181090
830791491955898624 469540 464321 384973 181037
830791491974099584 469574 464386 384992 181029
830791491992300544 469585 464396 385051 180975
830791492010501632 469613 464439 385087 181010
830791492028702592 469520 464402 385071 180994
830791492046903552 469421 464350 385023 180953
830791492065104640 469369 464313 385041 180954
830791492083305600 469283 464268 385060 180989
830791492101506688 469192 464203 385068 181008
830791492119707648 469116 464196 385087 180958
830791492137908608 469158 464177 385159 181009
830791492156109696 469161 464254 385229 180995
830791492174310656 469151 464261 385285 180973
830791492192511616 469224 464432 385443 181031
830791492210712704 469292 464551 385455 180994
830791492228913664 469244 464583 385431 180968
830791492247114752 469297 464691 385405 180987
830791492265315712 469252 464797 385365 181055
830791492283516672 469336 464943 385300 181004
830791492301717760 469445 465121 385312 181017
830791492319918720 469568 465262 385280 181035
830791492338119680 469565 465304 385231 181019
830791492356320768 469660 465397 385223 180932
830791492374521728 469774 465468 385232 180986
830791492392722816 469921 465527 385211 180952
830791492410923776 470007 465670 385273 180996
830791492429124809 470093 465711 385311 180987
830791492447326080 470217 465810 385300 181037
830791492465527296 470311 465836 385369 180993
830791492483728512 470485 465952 385449 180995
830791492501929728 470591 465936 385524 180994
830791492520130944 470760 466016 385545 180915
830791492538332160 470944 466167 385685 180992
830791492556533376 471053 466244 385689 180940
830791492574734592 471167 466287 385831 180989
830791492592935808 471118 466260 385827 180962
830791492611137152 470812 465981 385616 181011
830791492629338368 470406 465604 385417 180992
830791492647539584 469887 465114 385164 180969
830791492665740800 469323 464633 384939 181026
830791492683942016 468801 464161 384700 180978
830791492702143232 468375 463855 384569 181035
830791492720344448 467999 463492 384414 180995
830791492738545664 467751 463267 384320 181011
830791492756746880 467478 463043 384129 180984
830791492774948096 467342 463002 384171 181058
830791492793149312 467233 462869 384089 180977
830791492811350528 467145 462767 384027 181001
830791492829551744 467111 462773 384036 181041
830791492847752960 467118 462796 384093 181101
830791492865954176 467047 462706 384049 181040
830791492884155392 467023 462689 384120 181019
830791492902356736 466958 462606 384081 181008
830791492920557952 466923 462608 384197 180976
830791492938759168 466866 462608 384290 180988
830791492956960384 466988 462634 384318 180990
830791492975161600 466913 462705 384479 181002
830791492993362816 466792 462731 384563 180981
830791493011564032 466740 462813 384687 180986
830791493029765248 466738 462801 384676 180941
830791493047966464 466749 462910 384687 181007
830791493066167680 466856 463021 384675 181000
830791493084368896 466927 463105 384680 181000
830791493102570092 467044 463190 384652 181036
830791493120771072 467183 463329 384672 181029
830791493138972032 467280 463430 384682 181008
830791493157172992 467467 463519 384706 181024
830791493175373824 467619 463589 384699 180955
830791493193574784 467753 463746 384705 180932
830791493211775744 467982 463884 384853 180938
830791493229976704 468169 464027 384945 181007
830791493248177664 468323 464188 385030 181008
830791493266378496 468494 464220 385098 180989
830791493284579456 468684 464402 385216 180954
830791493302780416 468838 464482 385294 180983
830791493320981376 469000 464595 385379 181008
830791493339182336 469135 464628 385550 181013
830791493357383168 469296 464737 385670 181013
830791493375584128 469398 464702 385691 180951
830791493393785088 469489 464731 385726 181007
830791493411986048 469703 464850 385804 180993
830791493430187008 469782 464830 385942 180982
830791493448387968 469667 464672 385926 180973
830791493466588800 469491 464390 385862 181029
830791493484789760 469094 463939 385675 180948
830791493502990720 468601 463409 385392 180970
830791493521191680 468168 462894 385183 181019
830791493539392640 467759 462436 384938 181033
830791493557593472 467334 462040 384776 181008
830791493575794432 467110 461749 384629 181081
830791493593995392 466734 461358 384583 181023
830791493612196352 466532 461063 384528 181022
830791493630397312 466164 460807 384443 181058
830791493648598144 465887 460716 384459 181030
830791493666799104 465506 460667 384455 181060
830791493685000064 465115 460763 384477 181051
830791493703201024 464742 460927 384447 181041
830791493721401984 464272 461111 384559 181051
830791493739602816 463665 461567 384694 181022
830791493757803776 463098 462058 384874 181040
830791493776004736 462522 462321 384954 181026
830791493794205630 462076 462384 384873 181018
830791493812406272 461807 462313 384836 181013
830791493830606976 461568 462049 384721 181045
830791493848807680 461365 461908 384595 181037
830791493867008384 461225 461832 384476 181003
830791493885209088 461144 461731 384367 180989
830791493903409792 461154 461657 384335 180961
830791493921610496 461158 461623 384206 181014
830791493939811072 461209 461547 384215 181002
830791493958011776 461396 461622 384179 181070
830791493976212480 461479 461733 384210 181091
830791493994413184 461485 461687 384156 181080
830791494012613888 461559 461802 384131 181120
830791494030814592 461475 461974 384046 181062
830791494049015296 461559 462040 384051 181070
830791494067216000 461536 462092 383930 181044
830791494085416704 461537 462082 383833 181026
830791494103617408 461533 462075 383708 180962
830791494121818112 461702 462041 383746 181044
830791494140018816 461709 462033 383676 181018
830791494158219520 461753 462103 383604 180922
830791494176420096 461840 462159 383531 180979
830791494194620800 462026 462229 383657 181063
830791494212821504 462150 462260 383613 181001
830791494231022208 462330 462403 383706 181006
830791494249222912 462676 462643 383860 181011
830791494267423616 462934 462857 383977 181004
830791494285624320 463222 463034 384016 181060
830791494303825024 463384 463152 384055 180988
830791494322025728 463452 463192 383978 180957
830791494340226432 463284 462978 383818 181047
830791494358427136 462881 462576 383494 181024
830791494376627840 462350 462002 383175 181013
830791494394828544 461669 461323 382585 181024
830791494413029120 460992 460785 382075 181046
830791494431229824 460355 460224 381510 181027
830791494449430528 459732 459769 380956 180972
830791494467631232 459347 459382 380581 181043
830791494485832012 458987 459122 380230 181050
