TIMESTAMP PPG0 PPG1 PPG2 AMBIENT
832782691274553856 348518 315355 338735 -173052
832782691292735616 348566 315436 338858 -173010
832782691310917504 348528 315384 338859 -173087
832782691329099264 348546 315411 338846 -173096
832782691347281152 348554 315443 338825 -173056
832782691365462912 348586 315403 338824 -173010
832782691383644800 348560 315419 338824 -173037
832782691401826560 348630 315430 338789 -173062
832782691420008448 348565 315357 338768 -173071
832782691438190208 348494 315422 338765 -173120
832782691456372096 348542 315427 338778 -173068
832782691474553856 348512 315408 338807 -173088
832782691492735616 348536 315384 338846 -173020
832782691510917504 348578 315362 338806 -172999
832782691529099264 348555 315391 338822 -173011
832782691547281152 348560 315435 338836 -173027
832782691565462912 348503 315446 338767 -173086
832782691583644800 348501 315380 338795 -173073
832782691601826560 348566 315389 338808 -173077
832782691620008448 348512 315387 338763 -173105
832782691638190208 348510 315358 338726 -173027
832782691656372096 348512 315373 338759 -173059
832782691674553856 348508 315424 338794 -173041
832782691692735616 348516 315381 338821 -173106
832782691710917504 348562 315387 338812 -173067
832782691729099264 348526 315397 338763 -173064
832782691747281152 348561 315411 338761 -173048
832782691765462912 348545 315407 338810 -173014
832782691783644800 348606 315443 338829 -173026
832782691801826560 348588 315420 338798 -173044
832782691820008448 348518 315411 338779 -173028
832782691838190208 348576 315413 338721 -173087
832782691856372096 348561 315422 338707 -172986
832782691874553856 348594 315419 338810 -173011
832782691892735616 348526 315420 338806 -173025
832782691910917504 348559 315395 338837 -173029
832782691929099264 348559 315372 338771 -173087
832782691947281152 348522 315422 338800 -173070
832782691965462912 348521 315426 338832 -173059
832782691983644800 348510 315366 338817 -173119
832782692001826560 348488 315428 338831 -173056
832782692020008448 348531 315408 338802 -173094
832782692038190208 348550 315431 338808 -173048
832782692056372096 348480 315360 338722 -173091
832782692074553856 348491 315368 338772 -173047
832782692092735616 348552 315353 338797 -173003
832782692110917504 348484 315414 338804 -173067
832782692129099264 348476 315383 338770 -173073
832782692147281152 348461 315326 338732 -173102
832782692165462912 348471 315329 338760 -173137
832782692183644800 348542 315366 338785 -173057
832782692201826516 348459 315376 338788 -173094
832782692220038528 348535 315308 338773 -173040
832782692238250496 348557 315342 338848 -173082
832782692256462336 348507 315384 338771 -173043
832782692274674304 348524 315396 338781 -173073
832782692292886272 348484 315317 338810 -173041
832782692311098112 348452 315406 338747 -173033
832782692329310080 348557 315402 338785 -173040
832782692347522048 348565 315440 338812 -173054
832782692365734016 348529 315367 338799 -173061
832782692383945856 348546 315386 338780 -173059
832782692402157824 348507 315346 338755 -173047
832782692420369792 348461 315340 338716 -173079
832782692438581632 348497 315361 338789 -173070
832782692456793600 348444 315394 338773 -173096
832782692475005568 348505 315342 338749 -173092
832782692493217408 348506 315340 338775 -173068
832782692511429376 348525 315374 338808 -173058
832782692529641344 348455 315363 338744 -173097
832782692547853312 348461 315384 338727 -173090
832782692566065152 348492 315364 338790 -173082
832782692584277120 348541 315364 338726 -173064
832782692602489088 348521 315335 338776 -173086
832782692620700928 348505 315302 338764 -173078
832782692638912896 348493 315337 338698 -173117
832782692657124864 348513 315346 338751 -173070
832782692675336704 348426 315308 338748 -173099
832782692693548672 348538 315363 338776 -173065
832782692711760640 348477 315317 338737 -173094
832782692729972608 348511 315387 338764 -173054
832782692748184448 348523 315410 338783 -173077
832782692766396416 348502 315361 338688 -173036
832782692784608384 348519 315350 338769 -173048
832782692802820224 348538 315369 338788 -172982
832782692821032192 348498 315347 338760 -173086
832782692839244160 351206 318084 338820 -173105
832782692857456000 352564 319461 338887 -173031
832782692875667968 353094 319953 338790 -173147
832782692893879936 353393 320202 338814 -173045
832782692912091766 353547 320297 338768 -173094
832782692930304896 353728 320441 338783 -173038
832782692948518016 353941 320743 338795 -173071
832782692966731264 354181 320993 338769 -173046
832782692984944384 354495 321324 338799 -173055
832782693003157632 354570 321398 338818 -173100
832782693021370752 354393 321333 338800 -173058
832782693039584000 354096 320941 338794 -173068
832782693057797120 353637 320467 338753 -173033
832782693076010368 353156 320081 338741 -173050
832782693094223488 352775 319689 338756 -173112
832782693112436736 352684 319526 338782 -173038
832782693130649856 352716 319607 338766 -173080
832782693148863104 352867 319754 338831 -173095
832782693167076224 353145 320028 338825 -173078
832782693185289472 353393 320272 338807 -173070
832782693203502592 353497 320353 338759 -173081
832782693221715840 353595 320512 338783 -173038
832782693239928960 353646 320487 338793 -173044
832782693258142208 353749 320561 338822 -173059
832782693276355328 353890 320736 338718 -173089
832782693294568576 354127 321021 338748 -173129
832782693312781696 354390 321281 338736 -173071
832782693330994944 354633 321555 338796 -173045
832782693349208064 354494 321402 338770 -173073
832782693367421312 354183 321045 338777 -173073
832782693385634432 353774 320691 338797 -173070
832782693403847680 353299 320174 338796 -173089
832782693422060800 352831 319687 338785 -173087
832782693440273920 352700 319506 338761 -173100
832782693458487168 352688 319493 338781 -173030
832782693476700288 352860 319669 338801 -173082
832782693494913536 353098 319966 338790 -173050
832782693513126656 353323 320078 338816 -173100
832782693531339904 353498 320272 338793 -173080
832782693549553024 353563 320355 338756 -173050
832782693567766272 353530 320406 338758 -173072
832782693585979392 353617 320459 338775 -173037
832782693604192640 353821 320572 338814 -173072
832782693622405848 353984 320752 338739 -173064
832782693640618624 354286 321082 338807 -173061
832782693658831360 354476 321283 338720 -173055
832782693677044096 354542 321326 338765 -173080
832782693695256960 354366 321128 338813 -173004
832782693713469696 353901 320737 338810 -173080
832782693731682432 353422 320264 338846 -173053
832782693749895168 353001 319832 338816 -173060
832782693768107904 352713 319605 338821 -173043
832782693786320768 352677 319543 338807 -173012
832782693804533504 352770 319656 338816 -172974
832782693822746240 352976 319872 338827 -172994
832782693840958976 353184 320121 338789 -173055
832782693859171712 353428 320257 338732 -173067
832782693877384576 353441 320287 338770 -173100
832782693895597312 353462 320359 338808 -173079
832782693913810048 353553 320409 338786 -173053
832782693932022784 353725 320537 338799 -173053
832782693950235520 353953 320804 338825 -173037
832782693968448384 354210 321107 338788 -173043
832782693986661120 354453 321312 338793 -173082
832782694004873856 354498 321328 338832 -173050
832782694023086592 354388 321235 338891 -173014
832782694041299328 354019 320881 338846 -173059
832782694059512064 353577 320401 338816 -173071
832782694077724928 353110 319973 338821 -173075
832782694095937664 352782 319610 338788 -173031
832782694114150400 352649 319439 338762 -173126
832782694132363136 352717 319575 338836 -173022
832782694150575872 352862 319766 338762 -173047
832782694168788736 353093 319998 338803 -173058
832782694187001472 353301 320121 338779 -173071
832782694205214208 353467 320333 338785 -173073
832782694223426944 353500 320304 338775 -173115
832782694241639680 353596 320428 338844 -172999
832782694259852544 353649 320581 338799 -173046
832782694278065280 353869 320695 338775 -173027
832782694296278016 354089 321006 338737 -173010
832782694314490752 354371 321227 338788 -173039
832782694332703488 354539 321400 338786 -173045
832782694350916284 354514 321323 338827 -172997
832782694369129344 354156 321045 338823 -173052
832782694387342464 353710 320571 338782 -173038
832782694405555584 353228 320050 338794 -173020
832782694423768832 352878 319703 338729 -173047
832782694441981952 352641 319584 338805 -173048
832782694460195072 352679 319523 338778 -173088
832782694478408192 352860 319641 338751 -173054
832782694496621312 353137 319981 338750 -173076
832782694514834432 353321 320133 338744 -173079
832782694533047680 353466 320268 338802 -173071
832782694551260800 353494 320338 338768 -173048
832782694569473920 353504 320384 338735 -173019
832782694587687040 353604 320482 338775 -173043
832782694605900160 353831 320621 338790 -173063
832782694624113280 354098 320886 338779 -173077
832782694642326528 354268 321116 338737 -173065
832782694660539648 354486 321318 338754 -173095
832782694678752768 354478 321279 338764 -173059
832782694696965888 354188 321080 338759 -173104
832782694715179008 353800 320690 338724 -173106
832782694733392256 353336 320213 338730 -173113
832782694751605376 352891 319806 338756 -173116
832782694769818496 352719 319510 338767 -173079
832782694788031616 352610 319500 338797 -173087
832782694806244736 352779 319611 338807 -173107
832782694824457856 353042 319870 338802 -173088
832782694842671104 353235 320055 338805 -173026
832782694860884224 353429 320272 338832 -173026
832782694879097344 353504 320286 338705 -173052
832782694897310464 353572 320336 338727 -173056
832782694915523584 353633 320423 338770 -173042
832782694933736704 353749 320558 338796 -173051
832782694951949952 353969 320767 338785 -173014
832782694970163072 354183 321056 338790 -173062
832782694988376192 354463 321288 338819 -173081
832782695006589312 354554 321409 338837 -173058
832782695024802432 354411 321172 338772 -173039
832782695043015552 354002 320827 338761 -173105
832782695061228838 353511 320325 338776 -173088
832782695079441920 353110 319918 338796 -173081
832782695097655040 352824 319617 338802 -173036
832782695115868160 352626 319464 338745 -173073
832782695134081408 352775 319624 338777 -173122
832782695152294528 352940 319813 338751 -173028
832782695170507648 353212 319998 338753 -173014
832782695188720768 353359 320247 338730 -173073
832782695206933888 353453 320320 338739 -173073
832782695225147008 353535 320360 338739 -173044
832782695243360256 353590 320412 338731 -173046
832782695261573376 353662 320486 338746 -173062
832782695279786496 353856 320667 338725 -173080
832782695297999616 354252 321018 338775 -173000
832782695316212736 354452 321270 338731 -173042
832782695334425856 354582 321450 338730 -173074
832782695352639104 354487 321303 338776 -173036
832782695370852224 354126 320993 338754 -173047
832782695389065344 353764 320543 338808 -173022
832782695407278464 353215 320080 338811 -173030
832782695425491584 352841 319734 338744 -173097
832782695443704832 352704 319539 338734 -173087
832782695461917952 352681 319479 338725 -173095
832782695480131072 352859 319725 338751 -173045
832782695498344192 353105 319982 338842 -173003
832782695516557312 353281 320134 338754 -173058
832782695534770432 353439 320311 338827 -173036
832782695552983680 353582 320379 338771 -173019
832782695571196800 353610 320392 338744 -173088
832782695589409920 353660 320455 338771 -173044
832782695607623040 353822 320672 338820 -173052
832782695625836160 354101 320896 338762 -173009
832782695644049280 354288 321162 338711 -173100
832782695662262528 354546 321404 338794 -173062
832782695680475648 354474 321392 338801 -173034
832782695698688768 354234 321118 338762 -173067
832782695716901966 353785 320687 338750 -173121
832782695735115136 353291 320127 338743 -173136
832782695753328256 352975 319777 338748 -173085
832782695771541376 352688 319515 338718 -173062
832782695789754624 352671 319451 338756 -173060
832782695807967744 352812 319669 338769 -173058
832782695826180864 353067 319904 338793 -172995
832782695844393984 353287 320097 338753 -173026
832782695862607104 353359 320220 338721 -173053
832782695880820224 353463 320338 338775 -173091
832782695899033472 353449 320370 338731 -173071
832782695917246592 353627 320403 338765 -173044
832782695935459712 353675 320536 338729 -173056
832782695953672832 354002 320824 338793 -173006
832782695971885952 354283 321072 338755 -173055
832782695990099072 354469 321266 338741 -173033
832782696008312320 354552 321316 338709 -173047
832782696026525440 354288 321190 338760 -173054
832782696044738560 353966 320829 338784 -173026
832782696062951680 353442 320340 338775 -173063
832782696081164800 353065 319865 338762 -173116
832782696099378048 352741 319620 338763 -173048
832782696117591168 352576 319487 338728 -173042
832782696135804288 352705 319546 338751 -173070
832782696154017408 352931 319740 338661 -173055
832782696172230528 353174 319979 338688 -173045
832782696190443648 353290 320196 338729 -173095
832782696208656896 353505 320362 338714 -173047
832782696226870016 353538 320425 338730 -173018
832782696245083136 353589 320438 338755 -173065
832782696263296256 353688 320558 338697 -173100
832782696281509376 353974 320778 338747 -173051
832782696299722496 354205 320964 338731 -173046
832782696317935744 354428 321247 338730 -173092
832782696336148864 354563 321367 338771 -173079
832782696354361952 354448 321237 338793 -173048
832782696372574336 354086 320887 338769 -173048
832782696390786688 353610 320444 338819 -173098
832782696408999040 353154 319964 338750 -173128
832782696427211392 352844 319692 338738 -173086
832782696445423744 352635 319504 338772 -173029
832782696463635968 352679 319634 338801 -173071
832782696481848320 352904 319769 338808 -173079
832782696500060672 353144 319959 338751 -173058
832782696518273024 353293 320150 338764 -173080
832782696536485376 353483 320324 338825 -173026
832782696554697728 353525 320378 338823 -173057
832782696572910080 353593 320464 338797 -173011
832782696591122432 353615 320464 338729 -173064
832782696609334784 353805 320675 338734 -173017
832782696627547136 354087 320972 338810 -173037
832782696645759360 354355 321221 338752 -173050
832782696663971712 354528 321440 338770 -173042
832782696682184064 354550 321340 338726 -173007
832782696700396416 354259 321044 338778 -173061
832782696718608768 353790 320644 338770 -173104
832782696736821120 353231 320119 338664 -173111
832782696755033472 352934 319780 338756 -173008
832782696773245824 352662 319502 338721 -173023
832782696791458176 352682 319587 338734 -173018
832782696809670528 352814 319642 338760 -173086
832782696827882752 353078 319914 338793 -172986
832782696846095104 353285 320185 338756 -173021
832782696864307456 353396 320275 338749 -173063
832782696882519808 353542 320384 338766 -173055
832782696900732160 353564 320467 338767 -173051
832782696918944512 353635 320472 338785 -173074
832782696937156864 353752 320672 338754 -173053
832782696955369216 353982 320862 338771 -173054
832782696973581568 354305 321155 338763 -173022
832782696991793920 354497 321404 338789 -173027
832782697010006144 354502 321366 338760 -173039
832782697028218496 354309 321153 338667 -173055
832782697046430838 353958 320798 338715 -173041
832782697064643968 353435 320290 338701 -173086
832782697082857088 353040 319877 338768 -173065
832782697101070208 352810 319586 338784 -173009
832782697119283456 352669 319463 338703 -173076
832782697137496576 352761 319601 338660 -173033
832782697155709696 352945 319845 338663 -173112
832782697173922816 353238 320056 338705 -173065
832782697192135936 353433 320261 338725 -173062
832782697210349056 353537 320377 338695 -173132
832782697228562304 353575 320445 338736 -173087
832782697246775424 353689 320516 338782 -173062
832782697264988544 353764 320609 338798 -173016
832782697283201664 353998 320855 338777 -173035
832782697301414784 354193 321099 338730 -173031
832782697319627904 354468 321343 338765 -173038
832782697337841152 354607 321501 338737 -173040
832782697356054272 354427 321316 338715 -173039
832782697374267392 354115 320940 338739 -173071
832782697392480512 353637 320497 338729 -173050
832782697410693632 353155 320015 338734 -173062
832782697428906880 352803 319650 338743 -173054
832782697447120000 352738 319531 338741 -173050
832782697465333120 352796 319615 338764 -173051
832782697483546240 352979 319793 338758 -173043
832782697501759360 353218 320017 338741 -173047
832782697519972480 353378 320194 338749 -173064
832782697538185728 353675 320475 338746 -173056
832782697556398848 353734 320509 338747 -173031
832782697574611968 353679 320464 338669 -173036
832782697592825088 353778 320531 338747 -173055
832782697611038208 353939 320734 338758 -173065
832782697629251328 354292 321030 338722 -173078
832782697647464576 354553 321328 338754 -173068
832782697665677696 354776 321531 338777 -173060
832782697683890816 354610 321379 338725 -173142
832782697702103936 354264 321119 338752 -173116
832782697720317056 353857 320646 338763 -173076
832782697738530304 353354 320153 338691 -173074
832782697756743424 352974 319789 338704 -173102
832782697774956544 352781 319619 338724 -173072
832782697793169664 352788 319589 338736 -173047
832782697811382826 352908 319710 338700 -173037
832782697829595136 353134 319963 338684 -173065
832782697847807488 353339 320092 338758 -173060
832782697866019968 353411 320263 338703 -173026
832782697884232320 353459 320255 338720 -173052
832782697902444800 353500 320274 338720 -172990
832782697920657152 353537 320310 338758 -173097
832782697938869632 353742 320468 338772 -173033
832782697957081984 354000 320728 338765 -173036
832782697975294464 354307 321071 338755 -173048
832782697993506816 354671 321476 338813 -173046
832782698011719296 354541 321334 338775 -173062
832782698029931648 354287 321128 338817 -173048
832782698048144128 353853 320698 338800 -173022
832782698066356480 353433 320216 338789 -173062
832782698084568960 353021 319776 338735 -173036
832782698102781312 352765 319509 338773 -173034
832782698120993792 352705 319453 338750 -173038
832782698139206144 352820 319622 338750 -173039
832782698157418624 353037 319809 338756 -173040
832782698175630976 353269 320056 338716 -173102
832782698193843456 353487 320198 338701 -173085
832782698212055808 353580 320301 338761 -173100
832782698230268288 353574 320338 338695 -173102
832782698248480640 353643 320488 338838 -173057
832782698266693120 353744 320528 338695 -173053
832782698284905472 353995 320716 338750 -173045
832782698303117952 354272 321054 338755 -173050
832782698321330304 354548 321335 338702 -173076
832782698339542784 354624 321458 338739 -173021
832782698357755136 354450 321236 338695 -173036
832782698375967616 354098 320887 338753 -173000
832782698394179968 353611 320421 338680 -173055
832782698412392448 353147 319961 338700 -173040
832782698430604800 352830 319592 338775 -173056
832782698448817280 352716 319468 338759 -173111
832782698467029632 352830 319610 338744 -173076
832782698485242112 352961 319775 338709 -173085
832782698503454464 353394 320187 338802 -173003
832782698521666944 353450 320243 338760 -173029
832782698539879296 353609 320311 338745 -173005
832782698558091776 353599 320423 338755 -173029
832782698576304288 353646 320411 338733 -173019
832782698594517376 353744 320584 338767 -173006
832782698612730496 353959 320713 338751 -173059
832782698630943616 354192 321011 338751 -173088
832782698649156864 354526 321332 338797 -173058
832782698667369984 354590 321430 338781 -173099
832782698685583104 354507 321318 338756 -173080
832782698703796224 354200 320964 338728 -173041
832782698722009344 353749 320565 338763 -173051
832782698740222464 353302 320072 338762 -173070
832782698758435712 352940 319675 338733 -173062
832782698776648832 352761 319479 338729 -173078
832782698794861952 352841 319547 338734 -173061
832782698813075072 352960 319679 338701 -173095
832782698831288192 353173 319939 338721 -173096
832782698849501312 353367 320186 338717 -173048
832782698867714560 353558 320297 338728 -173052
832782698885927680 353642 320382 338767 -173079
832782698904140800 353703 320450 338780 -173023
832782698922353920 353753 320505 338694 -173064
832782698940567040 353910 320656 338739 -173078
832782698958780160 354149 320937 338750 -173041
832782698976993408 354434 321204 338785 -173038
832782698995206528 354610 321364 338725 -173078
832782699013419648 354707 321514 338750 -173054
832782699031632768 354377 321151 338731 -173027
832782699049845888 353948 320755 338716 -173043
832782699068059136 353429 320256 338720 -173046
832782699086272256 353048 319819 338727 -173075
832782699104485376 352829 319591 338715 -173038
832782699122698496 352729 319473 338708 -173063
832782699140911616 352888 319659 338738 -173035
832782699159124736 353100 319856 338675 -173100
832782699177337984 353376 320124 338783 -173041
832782699195551104 353492 320287 338741 -173042
832782699213764224 353593 320331 338725 -173064
832782699231977344 353685 320421 338736 -173059
832782699250190550 353753 320506 338749 -173047
832782699268402816 353897 320695 338761 -173071
832782699286615040 354119 320873 338744 -173059
832782699304827392 354360 321133 338763 -173031
832782699323039616 354612 321396 338742 -173039
832782699341251840 354701 321479 338725 -173037
832782699359464192 354462 321265 338769 -173082
832782699377676416 354119 320903 338785 -172999
832782699395888768 353601 320424 338754 -173054
832782699414100992 353167 319941 338718 -173078
832782699432313216 352917 319720 338789 -173035
832782699450525568 352772 319559 338762 -172999
832782699468737792 352799 319624 338698 -173085
832782699486950016 353070 319791 338739 -173061
832782699505162368 353267 320071 338707 -173117
832782699523374592 353609 320380 338782 -173054
832782699541586816 353608 320434 338731 -173073
832782699559799168 353684 320459 338760 -173054
832782699578011392 353700 320539 338819 -173070
832782699596223744 353851 320601 338737 -173061
832782699614435968 354007 320744 338670 -173072
832782699632648192 354366 321080 338738 -173005
832782699650860544 354630 321323 338716 -173035
832782699669072768 354757 321479 338732 -173033
832782699687284992 354594 321273 338705 -173058
832782699705497344 354278 320942 338728 -173050
832782699723709568 353768 320572 338750 -173077
832782699741921792 353238 320001 338683 -173126
832782699760134144 352946 319738 338745 -173026
832782699778346368 352748 319597 338801 -173099
832782699796558720 352735 319599 338729 -173038
832782699814770944 353031 319754 338794 -173056
832782699832983168 353203 319993 338773 -173053
832782699851195520 353437 320261 338759 -173027
832782699869407744 353556 320307 338753 -173042
832782699887620018 353707 320441 338773 -173033
832782699905833984 353651 320475 338769 -173029
832782699924048000 353817 320564 338778 -173010
832782699942261888 353945 320723 338811 -173045
832782699960475904 354168 320912 338741 -173079
832782699978689792 354551 321272 338776 -173053
832782699996903808 354705 321457 338769 -173056
832782700015117824 354602 321406 338769 -173030
832782700033331712 354449 321190 338747 -173040
832782700051545728 353939 320699 338732 -173034
832782700069759744 353437 320185 338749 -172976
832782700087973632 353021 319808 338737 -173069
832782700106187648 352778 319535 338793 -173025
832782700124401536 352770 319503 338721 -173048
832782700142615552 352914 319697 338775 -173059
832782700160829568 353159 319917 338737 -173054
832782700179043456 353424 320141 338796 -172975
832782700197257472 353583 320303 338801 -172991
832782700215471488 353622 320357 338715 -173081
832782700233685376 353677 320472 338744 -173003
832782700251899392 353723 320495 338731 -173020
832782700270113280 353900 320624 338754 -173070
832782700288327296 354132 320843 338710 -173048
832782700306541312 354388 321135 338718 -173044
832782700324755200 354605 321334 338738 -173057
832782700342969216 354655 321429 338754 -173034
832782700361183104 354396 321188 338718 -173038
832782700379397120 353987 320707 338633 -173041
832782700397611136 353586 320344 338794 -173011
832782700415825024 353149 319888 338769 -173042
832782700434039040 352849 319589 338744 -173022
832782700452253056 352809 319480 338687 -173051
832782700470466944 352887 319590 338762 -173051
832782700488680960 353015 319816 338709 -173059
832782700506894848 353310 320033 338743 -173031
832782700525108864 353548 320225 338752 -173003
832782700543322880 353571 320378 338686 -173063
832782700561536806 353632 320391 338712 -173077
832782700579749888 353717 320391 338712 -173059
832782700597963008 353775 320559 338709 -173060
832782700616176128 354019 320784 338720 -173068
832782700634389376 354321 321102 338666 -173050
832782700652602496 354561 321250 338714 -173022
832782700670815616 354687 321353 338746 -173043
832782700689028736 354484 321261 338708 -173025
832782700707241856 354137 320912 338684 -173048
832782700725454976 353705 320486 338697 -173045
832782700743668224 353223 319998 338731 -172986
832782700761881344 352893 319670 338711 -173064
832782700780094464 352797 319529 338710 -173069
832782700798307584 352807 319557 338729 -173071
832782700816520704 353015 319709 338718 -173020
832782700834733824 353287 319983 338731 -172994
832782700852947072 353462 320226 338702 -173020
832782700871160192 353555 320335 338736 -173022
832782700889373312 353577 320374 338726 -173018
832782700907586432 353686 320406 338690 -173013
832782700925799552 353792 320512 338712 -173023
832782700944012800 353979 320711 338742 -173019
832782700962225920 354231 320907 338733 -173027
832782700980439040 354484 321215 338732 -173028
832782700998652160 354786 321571 338722 -173038
832782701016865280 354645 321402 338742 -173069
832782701035078400 354305 321036 338695 -173040
832782701053291648 353776 320543 338625 -173076
832782701071504768 353339 320135 338667 -173058
832782701089717888 353009 319757 338675 -173106
832782701107931008 352757 319553 338686 -173053
832782701126144128 352762 319520 338654 -173027
832782701144357248 352959 319707 338670 -173014
832782701162570496 353161 319935 338713 -173071
832782701180783616 353360 320138 338709 -173059
832782701198996736 353519 320256 338694 -173007
832782701217209856 353633 320387 338708 -173047
832782701235422976 353633 320423 338714 -173054
832782701253636096 353758 320521 338730 -173057
832782701271849360 353873 320663 338754 -173034
832782701290062080 354099 320843 338729 -173026
832782701308274816 354391 321102 338721 -173058
832782701326487552 354630 321361 338741 -173029
832782701344700416 354678 321426 338796 -173008
832782701362913152 354413 321111 338673 -173054
832782701381125888 353982 320691 338653 -173137
832782701399338624 353477 320213 338708 -173075
832782701417551360 353076 319794 338646 -173102
832782701435764224 352780 319567 338677 -173043
832782701453976960 352751 319524 338677 -173069
832782701472189696 352905 319638 338694 -173029
832782701490402432 353075 319789 338646 -173071
832782701508615168 353375 320035 338691 -173037
832782701526828032 353561 320266 338729 -173072
832782701545040768 353635 320421 338719 -173085
832782701563253504 353667 320408 338724 -173029
832782701581466240 353724 320379 338697 -173104
832782701599678976 353856 320563 338718 -173088
832782701617891840 354066 320817 338715 -173077
832782701636104576 354363 321084 338716 -173021
832782701654317312 354613 321358 338720 -173022
832782701672530048 354619 321382 338725 -173050
832782701690742784 354534 321193 338688 -173054
832782701708955520 354122 320795 338643 -173094
832782701727168384 353617 320351 338662 -173106
832782701745381120 353263 319899 338715 -173030
832782701763593856 352890 319595 338650 -173063
832782701781806592 352691 319483 338690 -172997
832782701800019328 352794 319514 338699 -173035
832782701818232192 352986 319766 338728 -173078
832782701836444928 353273 319987 338703 -173053
832782701854657664 353456 320221 338703 -173021
832782701872870400 353570 320374 338709 -173077
832782701891083136 353659 320403 338759 -173046
832782701909296000 353692 320473 338707 -173042
832782701927508736 353783 320556 338749 -173090
832782701945721472 354005 320720 338680 -173028
832782701963934208 354252 320936 338708 -173061
832782701982146944 354494 321215 338671 -173074
832782702000359798 354674 321362 338709 -173091
832782702018572544 354695 321454 338666 -173061
832782702036785280 354317 321086 338735 -173036
832782702054998016 353828 320602 338730 -173047
832782702073210752 353305 320065 338692 -173060
832782702091423488 352965 319743 338692 -173047
832782702109636352 352727 319483 338620 -173053
832782702127849088 352788 319512 338687 -173053
832782702146061824 352918 319688 338671 -173035
832782702164274560 353217 319925 338728 -173054
832782702182487296 353443 320126 338745 -173047
832782702200700032 353570 320292 338712 -173062
832782702218912768 353664 320383 338746 -173112
832782702237125504 353707 320426 338726 -173076
832782702255338368 353770 320464 338682 -173071
832782702273551104 353925 320611 338662 -173107
832782702291763840 354089 320901 338741 -173073
832782702309976576 354399 321254 338727 -173103
832782702328189312 354620 321404 338698 -173050
832782702346402048 354640 321362 338705 -173016
832782702364614784 354322 321057 338664 -173114
832782702382827520 353947 320741 338769 -173029
832782702401040256 353467 320239 338758 -173001
832782702419253120 353087 319851 338779 -172974
832782702437465856 352892 319561 338746 -173078
832782702455678592 352852 319565 338766 -173029
832782702473891328 352930 319616 338741 -173029
832782702492104064 353140 319853 338659 -173023
832782702510316800 353399 320103 338711 -172999
832782702528529536 353654 320397 338693 -173008
832782702546742272 353648 320416 338684 -173045
832782702564955136 353629 320337 338639 -173079
832782702583167872 353688 320447 338692 -173013
832782702601380608 353899 320604 338739 -172974
832782702619593344 354111 320835 338737 -172988
832782702637806080 354348 321133 338696 -173025
832782702656018816 354578 321370 338642 -173077
832782702674231552 354612 321412 338650 -173105
832782702692444288 354475 321198 338712 -173071
832782702710657092 354063 320867 338703 -173048
832782702728870272 353594 320385 338716 -173024
832782702747083392 353174 319894 338695 -172987
832782702765296512 352917 319583 338709 -173022
832782702783509760 352789 319493 338694 -173052
832782702801722880 352899 319584 338731 -172991
832782702819936000 353035 319776 338662 -173078
832782702838149120 353292 320038 338664 -173053
832782702856362240 353520 320240 338693 -172996
832782702874575360 353578 320363 338685 -173072
832782702892788608 353690 320422 338674 -173031
832782702911001728 353708 320455 338712 -173045
832782702929214848 353837 320533 338634 -173065
832782702947427968 354010 320728 338693 -173087
832782702965641088 354256 320953 338674 -173075
832782702983854208 354576 321289 338716 -172994
832782703002067456 354682 321436 338741 -173048
832782703020280576 354546 321276 338705 -173088
832782703038493696 354333 321154 338677 -173093
832782703056706816 353795 320614 338654 -173039
832782703074919936 353336 320070 338721 -173120
832782703093133184 352963 319700 338748 -173022
832782703111346304 352752 319543 338713 -173087
832782703129559424 352824 319587 338746 -173060
832782703147772544 353012 319758 338747 -173057
832782703165985664 353191 319956 338763 -173059
832782703184198784 353436 320199 338694 -173004
832782703202412032 353606 320268 338719 -173039
832782703220625152 353709 320336 338697 -173045
832782703238838272 353664 320362 338662 -173050
832782703257051392 353790 320546 338666 -173075
832782703275264512 353934 320668 338648 -173020
832782703293477632 354174 320879 338642 -173058
832782703311690880 354442 321174 338657 -172999
832782703329904000 354658 321428 338703 -173034
832782703348117120 354661 321373 338755 -173042
832782703366330220 354364 321125 338741 -173054
832782703384542464 353959 320670 338754 -173035
832782703402754688 353427 320134 338685 -173050
832782703420967040 353009 319770 338661 -173092
832782703439179264 352825 319525 338670 -173099
832782703457391488 352796 319517 338634 -173057
832782703475603840 352904 319653 338675 -173077
832782703493816064 353246 319941 338652 -173110
832782703512028416 353399 320153 338643 -173086
832782703530240640 353525 320316 338640 -173070
832782703548452864 353624 320413 338693 -173021
832782703566665216 353615 320457 338686 -173038
832782703584877440 353677 320477 338698 -173073
832782703603089664 353867 320618 338707 -172958
832782703621302016 354115 320788 338714 -173045
832782703639514240 354436 321144 338720 -173012
832782703657726464 354639 321395 338715 -172978
832782703675938816 354648 321409 338660 -173094
832782703694151040 354468 321158 338687 -173037
832782703712363392 354030 320755 338673 -173022
832782703730575616 353576 320283 338658 -173007
832782703748787840 353159 319898 338716 -173030
832782703767000192 352811 319626 338670 -173042
832782703785212416 352713 319440 338658 -173068
832782703803424640 352849 319582 338662 -173013
832782703821636992 353105 319791 338675 -173085
832782703839849216 353302 320032 338665 -173112
832782703858061440 353530 320214 338682 -173098
832782703876273792 353622 320337 338685 -173077
832782703894486016 353676 320353 338699 -173057
832782703912698368 353630 320418 338630 -173097
832782703930910592 353776 320503 338668 -173121
832782703949122816 353991 320755 338659 -173110
832782703967335168 354316 321010 338602 -173053
832782703985547392 354465 321270 338630 -173061
832782704003759688 354753 321534 338635 -173019
832782704021972224 354496 321318 338697 -173019
832782704040184704 354218 320970 338703 -173020
832782704058397056 353697 320416 338697 -173036
832782704076609536 353240 320017 338701 -173078
832782704094822016 352865 319673 338641 -173080
832782704113034368 352753 319484 338663 -173078
832782704131246848 352839 319547 338675 -173023
832782704149459328 353063 319700 338699 -173041
832782704167671808 353236 319926 338679 -173070
832782704185884160 353440 320211 338763 -173056
832782704204096640 353573 320305 338678 -173026
832782704222309120 353624 320345 338659 -173074
832782704240521472 353652 320394 338650 -173062
832782704258733952 353745 320505 338687 -173099
832782704276946432 353980 320701 338753 -173011
832782704295158784 354229 321024 338705 -173040
832782704313371264 354529 321266 338708 -173042
832782704331583744 354673 321501 338666 -173077
832782704349796224 354654 321364 338716 -173039
832782704368008576 354357 321127 338708 -173041
832782704386221056 353885 320624 338714 -173017
832782704404433536 353391 320152 338668 -173081
832782704422645888 353064 319773 338708 -173086
832782704440858368 352837 319590 338745 -173030
832782704459070848 352756 319501 338721 -173037
832782704477283200 352949 319707 338742 -173004
832782704495495680 353097 319923 338673 -173026
832782704513708160 353478 320255 338708 -173043
832782704531920512 353574 320317 338666 -173013
832782704550132992 353712 320367 338683 -173062
832782704568345472 353720 320456 338661 -173013
832782704586557952 353741 320491 338640 -173051
832782704604770304 353920 320683 338654 -173018
832782704622982784 354156 320899 338652 -173027
832782704641195264 354481 321245 338699 -173023
832782704659407616 354693 321506 338786 -172965
832782704677620008 354659 321436 338688 -173023
832782704695832960 354450 321152 338697 -173030
832782704714045952 354039 320741 338712 -173033
832782704732259072 353554 320261 338711 -173028
832782704750472064 353134 319891 338732 -173035
832782704768685056 352862 319604 338696 -172987
832782704786898048 352821 319557 338699 -173006
832782704805111168 352857 319611 338683 -173033
832782704823324160 353099 319826 338699 -173001
832782704841537152 353347 320033 338733 -173012
832782704859750144 353506 320290 338725 -173014
832782704877963264 353614 320387 338688 -172978
832782704896176256 353714 320436 338748 -173000
832782704914389248 353708 320465 338682 -173004
832782704932602240 353850 320606 338720 -173078
832782704950815360 354057 320764 338673 -173059
832782704969028352 354385 321085 338743 -172973
832782704987241344 354611 321316 338673 -173017
832782705005454336 354705 321384 338632 -173025
832782705023667456 354684 321404 338660 -173023
832782705041880448 354180 320903 338686 -173094
832782705060093440 353701 320451 338725 -173006
832782705078306432 353207 319899 338683 -173027
832782705096519552 352877 319634 338645 -173047
832782705114732544 352839 319502 338763 -173001
832782705132945536 352819 319497 338671 -173061
832782705151158528 353042 319755 338606 -173073
832782705169371648 353304 319994 338682 -173040
832782705187584640 353464 320240 338671 -173078
832782705205797632 353573 320332 338658 -173070
832782705224010624 353674 320418 338716 -172979
832782705242223744 353691 320478 338742 -173004
832782705260436736 353782 320524 338687 -173080
832782705278649728 353962 320725 338686 -173023
832782705296862848 354293 320971 338633 -173051
832782705315075840 354551 321305 338668 -173046
832782705333288832 354714 321448 338692 -173030
832782705351501824 354589 321293 338692 -173082
832782705369714944 354255 320984 338690 -173061
832782705387927986 353823 320522 338704 -173048
832782705406140288 353385 320097 338713 -172989
832782705424352640 352983 319697 338701 -173018
832782705442565120 352820 319466 338661 -173063
832782705460777472 352818 319538 338632 -173098
832782705478989952 352949 319692 338649 -173146
832782705497202304 353176 319934 338646 -173046
832782705515414784 353413 320115 338611 -173062
832782705533627136 353707 320433 338640 -173073
832782705551839616 353712 320403 338693 -173022
832782705570051968 353654 320414 338626 -173089
832782705588264448 353758 320469 338666 -173100
832782705606476800 353935 320622 338686 -173008
832782705624689280 354179 320898 338692 -173063
832782705642901632 354384 321147 338660 -173073
832782705661114112 354664 321444 338673 -173053
832782705679326464 354648 321408 338644 -173037
832782705697538944 354354 321100 338639 -173028
832782705715751296 353877 320643 338649 -173075
832782705733963776 353441 320183 338662 -173075
832782705752176128 353036 319780 338654 -173109
832782705770388608 352773 319480 338613 -173105
832782705788600960 352720 319497 338673 -173064
832782705806813440 352893 319597 338702 -173094
832782705825025792 353065 319842 338607 -173108
832782705843238272 353378 320102 338648 -173062
832782705861450624 353535 320269 338681 -173088
832782705879663104 353633 320329 338637 -173050
832782705897875456 353661 320400 338679 -173010
832782705916087936 353716 320429 338653 -173028
832782705934300288 353826 320608 338670 -173055
832782705952512768 354088 320814 338663 -173043
832782705970725120 354428 321133 338697 -173007
832782705988937600 354768 321515 338692 -172986
832782706007149952 354718 321482 338688 -173000
832782706025362432 354518 321225 338643 -173073
832782706043574784 354086 320813 338703 -173042
832782706061787264 353617 320351 338664 -173048
832782706079999616 353121 319880 338716 -173127
832782706098212096 352881 319577 338713 -173063
832782706116424448 352724 319405 338650 -173075
832782706134636928 352809 319496 338629 -173051
832782706152849448 353032 319739 338681 -173043
832782706171061120 353228 319997 338657 -173085
832782706189272832 353490 320203 338629 -173090
832782706207484544 353609 320307 338636 -173048
832782706225696128 353624 320378 338647 -173045
832782706243907840 353685 320455 338647 -173019
832782706262119552 353840 320568 338716 -173030
832782706280331264 353981 320769 338692 -173054
832782706298542976 354254 321056 338657 -173078
832782706316754688 354530 321294 338664 -173086
832782706334966272 354718 321442 338647 -173074
832782706353177984 354542 321307 338623 -173073
832782706371389696 354240 320909 338674 -173074
832782706389601408 353774 320495 338658 -173059
832782706407813120 353334 320019 338682 -173081
832782706426024832 352966 319644 338680 -173077
832782706444236416 352758 319449 338673 -173119
832782706462448128 352887 319575 338731 -173057
832782706480659840 352975 319777 338679 -173088
832782706498871552 353325 320058 338659 -173028
832782706517083264 353457 320177 338636 -173043
832782706535294848 353521 320252 338659 -173064
832782706553506560 353633 320377 338667 -173090
832782706571718272 353582 320298 338658 -173102
832782706589929984 353717 320453 338699 -173048
832782706608141696 353835 320632 338685 -173107
832782706626353408 354151 320986 338674 -173055
832782706644564992 354453 321185 338645 -173036
832782706662776704 354676 321387 338679 -173026
832782706680988416 354638 321356 338698 -173045
832782706699200128 354362 321044 338698 -173067
832782706717411840 353919 320615 338684 -173043
832782706735623552 353441 320145 338647 -173108
832782706753835136 352983 319731 338649 -173056
832782706772046848 352787 319531 338696 -173070
832782706790258560 352784 319456 338708 -173054
832782706808470272 352932 319605 338691 -173077
832782706826681984 353138 319792 338691 -173055
832782706844893568 353375 320059 338697 -173035
832782706863105280 353519 320297 338694 -173060
832782706881316992 353642 320352 338676 -173028
832782706899528704 353731 320365 338629 -173027
832782706917740400 353714 320423 338675 -173079
832782706935951360 353865 320579 338631 -173027
832782706954162304 354108 320811 338624 -173037
832782706972373120 354393 321086 338630 -173094
832782706990584064 354672 321366 338658 -173016
832782707008794880 354836 321572 338695 -173075
832782707027005824 354504 321242 338576 -173048
832782707045216768 354089 320834 338667 -173076
832782707063427584 353654 320335 338712 -173039
832782707081638528 353150 319872 338696 -173061
832782707099849344 352863 319650 338727 -173053
832782707118060288 352778 319487 338668 -173072
832782707136271232 352881 319576 338679 -173038
832782707154482048 352984 319769 338625 -173065
832782707172692992 353327 320026 338662 -173038
832782707190903808 353530 320244 338626 -172987
832782707209114752 353633 320375 338665 -173039
832782707227325696 353673 320353 338693 -173060
832782707245536512 353739 320406 338680 -173096
832782707263747456 353877 320514 338675 -173111
832782707281958272 354033 320749 338664 -173051
832782707300169216 354332 321044 338649 -173057
832782707318380160 354549 321266 338624 -172994
832782707336590976 354721 321369 338625 -173014
832782707354801920 354568 321280 338647 -173023
832782707373012864 354230 320913 338703 -173024
832782707391223680 353722 320380 338687 -173053
832782707409434624 353325 319983 338716 -173007
832782707427645440 352894 319615 338683 -173071
832782707445856384 352744 319504 338670 -173039
832782707464067328 352746 319497 338586 -173057
832782707482278144 352975 319686 338616 -173058
832782707500489088 353264 319951 338703 -172966
832782707518699904 353606 320337 338695 -173020
832782707536910848 353668 320407 338762 -173013
832782707555121792 353697 320427 338727 -172984
832782707573332608 353725 320463 338718 -173011
832782707591543552 353828 320493 338758 -172992
832782707609754350 353976 320652 338708 -173059
832782707627965056 354175 320983 338729 -173035
832782707646175744 354477 321237 338703 -173097
832782707664386432 354712 321429 338692 -173026
832782707682596992 354598 321324 338668 -173027
832782707700807680 354356 321074 338705 -172993
832782707719018368 353937 320633 338703 -172967
832782707737229056 353343 320093 338677 -173022
832782707755439616 353042 319766 338727 -173017
832782707773650304 352795 319513 338627 -173023
832782707791860992 352819 319519 338703 -172978
832782707810071680 352948 319663 338673 -173007
832782707828282240 353196 319934 338673 -173061
832782707846492928 353421 320117 338716 -173043
832782707864703616 353545 320284 338703 -173050
832782707882914304 353665 320375 338658 -173063
832782707901124864 353660 320440 338670 -173069
832782707919335552 353719 320491 338679 -173045
832782707937546240 353886 320579 338683 -173047
832782707955756928 354155 320908 338668 -173036
832782707973967488 354468 321154 338651 -173043
832782707992178176 354669 321430 338650 -173063
832782708010388864 354671 321408 338671 -173033
832782708028599552 354595 321186 338678 -173024
832782708046810240 354120 320796 338733 -173081
832782708065020800 353553 320299 338685 -173033
832782708083231488 353114 319856 338693 -173006
832782708101442176 352849 319590 338658 -173023
832782708119652864 352786 319568 338680 -173048
832782708137863424 352845 319578 338721 -173017
832782708156074112 353053 319855 338702 -173025
832782708174284800 353355 320037 338696 -172984
832782708192495488 353537 320239 338676 -172989
832782708210706048 353607 320337 338688 -172983
832782708228916736 353697 320410 338731 -173023
832782708247127362 353714 320450 338622 -173045
832782708265339520 353840 320581 338705 -172989
832782708283551616 354040 320795 338673 -173033
832782708301763712 354317 321053 338660 -173016
832782708319975808 354636 321312 338675 -172986
832782708338188032 354714 321451 338725 -173016
832782708356400128 354537 321232 338680 -173005
832782708374612224 354163 320850 338590 -173041
832782708392824320 353694 320461 338692 -173020
832782708411036416 353230 319963 338667 -173047
832782708429248512 352915 319673 338652 -173079
832782708447460608 352740 319529 338686 -173057
832782708465672704 352816 319551 338673 -173043
832782708483884928 352975 319749 338699 -173065
832782708502097024 353229 319977 338693 -173088
832782708520309120 353413 320162 338611 -173056
832782708538521216 353567 320324 338643 -172991
832782708556733312 353629 320369 338643 -173038
832782708574945408 353668 320346 338627 -173021
832782708593157504 353812 320536 338703 -173041
832782708611369600 354003 320746 338735 -173021
832782708629581824 354195 320970 338661 -173074
832782708647793920 354519 321257 338713 -173046
832782708666006016 354667 321394 338719 -173058
832782708684218112 354616 321310 338695 -173063
832782708702430208 354257 321013 338716 -173070
832782708720642304 353757 320528 338692 -173061
832782708738854400 353328 320062 338664 -173041
832782708757066496 353026 319663 338644 -173089
832782708775278720 352814 319538 338710 -173056
832782708793490816 352809 319533 338705 -172997
832782708811702912 352945 319663 338662 -173028
832782708829915008 353214 319874 338693 -173026
832782708848127104 353429 320102 338697 -173039
832782708866339200 353591 320297 338715 -173041
832782708884551296 353662 320357 338720 -173022
832782708902763392 353661 320413 338646 -173064
832782708920975616 353748 320511 338694 -173050
832782708939187712 353949 320656 338632 -173062
832782708957399808 354127 320883 338648 -173028
832782708975611860 354354 321150 338611 -173061
832782708993823744 354723 321479 338669 -173055
832782709012035584 354699 321408 338618 -173034
832782709030247552 354440 321154 338697 -173036
832782709048459392 354051 320717 338675 -173028
832782709066671232 353518 320237 338647 -173058
832782709084883200 353078 319752 338663 -173036
832782709103095040 352840 319576 338674 -173038
832782709121306880 352750 319496 338626 -173073
832782709139518848 352831 319591 338644 -173094
832782709157730688 353069 319771 338649 -173079
832782709175942528 353332 320058 338575 -173088
832782709194154496 353456 320221 338590 -173073
832782709212366336 353624 320327 338630 -173023
832782709230578176 353647 320351 338639 -173050
832782709248790144 353668 320413 338608 -173115
832782709267001984 353812 320505 338599 -173120
832782709285213824 354105 320811 338627 -173019
832782709303425792 354331 321030 338590 -173027
832782709321637632 354565 321272 338658 -173070
832782709339849472 354623 321334 338670 -173040
832782709358061440 354479 321160 338668 -173052
832782709376273280 354099 320812 338641 -173088
832782709394485120 353671 320397 338659 -173024
832782709412697088 353212 319912 338640 -173067
832782709430908928 352847 319583 338656 -173029
832782709449120768 352739 319512 338665 -173020
832782709467332736 352830 319490 338652 -173037
832782709485544576 353000 319691 338626 -173095
832782709503756544 353304 319958 338626 -173007
832782709521968384 353496 320200 338648 -173034
832782709540180224 353587 320264 338623 -173058
832782709558392192 353695 320348 338633 -173021
832782709576604032 353689 320478 338577 -173021
832782709594815872 353783 320548 338637 -173034
832782709613027840 354010 320696 338653 -173058
832782709631239680 354265 321000 338649 -173067
832782709649451520 354476 321282 338606 -173044
832782709667663488 354646 321393 338679 -173010
832782709685875328 354605 321350 338684 -173040
832782709704087200 354256 320952 338665 -173023
832782709722298368 353796 320553 338699 -172963
832782709740509568 353350 320099 338720 -172989
832782709758720768 353021 319688 338725 -173024
832782709776931968 352755 319539 338667 -173059
832782709795143168 352786 319514 338649 -173081
832782709813354368 352946 319743 338630 -173046
832782709831565568 353189 319926 338664 -173022
832782709849776768 353424 320131 338685 -173042
832782709867987968 353557 320290 338654 -173051
832782709886199168 353582 320390 338643 -173046
832782709904410368 353640 320402 338661 -173072
832782709922621568 353852 320473 338657 -173037
832782709940832768 353974 320602 338650 -173062
832782709959043968 354213 320834 338627 -173096
832782709977255168 354462 321144 338645 -173052
832782709995466368 354726 321385 338694 -173021
832782710013677696 354570 321396 338678 -173088
832782710031888896 354434 321044 338622 -172992
832782710050100096 353890 320660 338606 -173010
832782710068311296 353474 320200 338699 -173006
832782710086522496 353027 319769 338734 -173013
832782710104733696 352807 319531 338674 -173018
832782710122944896 352788 319455 338661 -173004
832782710141156096 352939 319558 338663 -172976
832782710159367296 353161 319826 338708 -172986
832782710177578496 353367 320075 338682 -173025
832782710195789696 353512 320252 338647 -173039
832782710214000896 353614 320329 338664 -173033
832782710232212096 353634 320390 338697 -173027
832782710250423296 353659 320421 338603 -173068
832782710268634496 353891 320583 338690 -173063
832782710286845696 354120 320840 338704 -173033
832782710305056896 354376 321128 338670 -172988
832782710323268096 354627 321318 338674 -173018
832782710341479296 354684 321410 338658 -173008
832782710359690496 354491 321212 338662 -173050
832782710377901752 354113 320831 338701 -172988
832782710396112128 353580 320328 338685 -173018
832782710414322560 353199 319881 338719 -172995
832782710432532992 352914 319585 338696 -173020
832782710450743424 352773 319506 338645 -173040
832782710468953856 352847 319536 338665 -173062
832782710487164288 353011 319803 338653 -173051
832782710505374848 353268 320046 338617 -173065
832782710523585280 353501 320259 338652 -173068
832782710541795712 353629 320337 338642 -173033
832782710560006144 353718 320331 338656 -173051
832782710578216576 353732 320442 338636 -173054
832782710596427008 353837 320589 338663 -173029
832782710614637440 354029 320710 338673 -173059
832782710632847872 354344 321028 338626 -173071
832782710651058304 354543 321263 338649 -173031
832782710669268736 354678 321363 338666 -173055
832782710687479168 354572 321318 338703 -173059
832782710705689600 354230 320937 338684 -173046
832782710723900160 353728 320495 338685 -173028
832782710742110592 353263 320030 338694 -172974
832782710760321024 352913 319629 338670 -173019
832782710778531456 352820 319525 338654 -173017
832782710796741888 352824 319489 338683 -172999
832782710814952320 353027 319693 338691 -172950
832782710833162752 353181 319930 338648 -173036
832782710851373184 353401 320132 338632 -173090
832782710869583616 353547 320302 338681 -173046
832782710887794048 353696 320416 338674 -172993
832782710906004480 353735 320401 338677 -173026
832782710924214912 353780 320469 338683 -173009
832782710942425472 353964 320619 338646 -173013
832782710960635904 354152 320925 338692 -173063
832782710978846336 354383 321172 338619 -172999
832782710997056768 354698 321436 338688 -173017
832782711015267200 354644 321347 338642 -173059
832782711033477632 354364 320979 338641 -173016
832782711051688064 353895 320689 338636 -173020
832782711069898496 353387 320131 338643 -173087
832782711088109020 352980 319721 338583 -173039
832782711106321792 352757 319505 338584 -173039
832782711124534528 352690 319419 338561 -173029
832782711142747264 352907 319643 338704 -172962
832782711160959872 353113 319867 338680 -173001
832782711179172608 353322 320068 338649 -173044
832782711197385344 353506 320252 338656 -173034
832782711215598080 353654 320326 338721 -172988
832782711233810816 353668 320447 338705 -173012
832782711252023552 353760 320454 338665 -172999
832782711270236160 353951 320640 338692 -173047
832782711288448896 354138 320806 338686 -172991
832782711306661632 354409 321112 338610 -173042
832782711324874368 354634 321327 338656 -173052
832782711343087104 354675 321389 338663 -173069
832782711361299712 354456 321179 338698 -173053
832782711379512448 353990 320732 338686 -173014
832782711397725184 353535 320225 338668 -173006
832782711415937920 353135 319831 338679 -173025
832782711434150656 352837 319519 338648 -173028
832782711452363264 352735 319456 338611 -173059
832782711470576000 352790 319476 338611 -173023
832782711488788736 353106 319837 338671 -173037
832782711507001472 353276 320012 338595 -173067
832782711525214208 353489 320224 338653 -173072
832782711543426944 353631 320346 338674 -172992
832782711561639552 353712 320384 338699 -172977
832782711579852288 353716 320437 338710 -173016
832782711598065024 353812 320517 338634 -173051
832782711616277760 354099 320788 338659 -172999
832782711634490496 354334 321057 338647 -173011
832782711652703104 354567 321305 338700 -173041
832782711670915840 354666 321445 338646 -173012
832782711689128576 354500 321271 338646 -173045
832782711707341312 354153 320904 338698 -173029
832782711725554048 353730 320480 338692 -173007
832782711743766656 353214 319978 338728 -173041
832782711761979392 352890 319709 338714 -172987
832782711780192128 352735 319513 338703 -173024
832782711798404790 352850 319606 338684 -172977
832782711816617856 353029 319795 338683 -173035
832782711834830976 353215 319951 338628 -173058
832782711853044096 353390 320223 338639 -173093
832782711871257344 353547 320311 338674 -173044
832782711889470464 353639 320377 338744 -172996
832782711907683584 353694 320451 338700 -173008
832782711925896704 353799 320584 338684 -172940
832782711944109824 353998 320727 338724 -172962
832782711962322944 354253 320970 338661 -172999
832782711980536192 354539 321250 338661 -172999
832782711998749312 354727 321393 338714 -172997
832782712016962432 354633 321332 338670 -173028
832782712035175552 354314 321112 338688 -173010
832782712053388672 353859 320582 338642 -173012
832782712071601792 353399 320099 338615 -173026
832782712089815040 352982 319802 338642 -173020
832782712108028160 352744 319449 338649 -173074
832782712126241280 352770 319485 338641 -173012
832782712144454400 352960 319649 338605 -173044
832782712162667520 353156 319861 338646 -173094
832782712180880768 353442 320181 338608 -173058
832782712199093888 353564 320324 338666 -173060
832782712217307008 353692 320493 338663 -173043
832782712235520128 353756 320407 338690 -173034
832782712253733248 353773 320484 338591 -173022
832782712271946368 353954 320657 338629 -172982
832782712290159616 354204 320840 338626 -173040
832782712308372736 354395 321111 338629 -173005
832782712326585856 354597 321384 338590 -173099
832782712344798976 354576 321327 338618 -173038
832782712363012096 354406 321144 338609 -173098
832782712381225216 353955 320684 338645 -173071
832782712399438464 353473 320220 338627 -173060
832782712417651584 353089 319843 338650 -173055
832782712435864704 352840 319565 338645 -173022
832782712454077824 352712 319493 338636 -173079
832782712472291060 352845 319512 338588 -173102
832782712490502528 353168 319839 338668 -173019
832782712508713984 353407 320116 338686 -173026
832782712526925312 353537 320300 338648 -172968
832782712545136768 353651 320386 338675 -173002
832782712563348096 353676 320435 338691 -173017
832782712581559552 353726 320484 338736 -173017
832782712599770880 353878 320584 338662 -173014
832782712617982336 354092 320771 338652 -172986
832782712636193664 354408 321053 338699 -173024
832782712654405120 354647 321276 338709 -173011
832782712672616576 354659 321364 338607 -173031
832782712690827904 354563 321207 338646 -173037
832782712709039360 354173 320884 338663 -172978
832782712727250688 353641 320403 338608 -173024
832782712745462144 353217 319933 338623 -173017
832782712763673472 352880 319585 338624 -173005
832782712781884928 352804 319521 338666 -173038
832782712800096256 352805 319481 338658 -173026
832782712818307712 352983 319707 338674 -173009
832782712836519040 353270 319971 338671 -173010
832782712854730496 353515 320240 338684 -173004
832782712872941952 353599 320350 338603 -172984
832782712891153280 353638 320351 338660 -172993
832782712909364736 353705 320412 338724 -173044
832782712927576064 353792 320520 338717 -173024
832782712945787520 353952 320657 338665 -173095
832782712963998848 354237 320942 338691 -173025
832782712982210304 354495 321175 338712 -173056
832782713000421632 354659 321342 338678 -173034
832782713018633088 354568 321263 338644 -173051
832782713036844544 354314 320929 338665 -173026
832782713055055872 353857 320542 338679 -173054
832782713073267328 353323 320079 338669 -173023
832782713091478656 352940 319694 338663 -173075
832782713109690010 352779 319508 338658 -173019
832782713127901696 352746 319515 338633 -173063
832782713146113408 352943 319725 338649 -173037
832782713164325120 353128 319927 338650 -173058
832782713182536704 353393 320185 338667 -172990
832782713200748416 353595 320326 338682 -173037
832782713218960128 353628 320342 338682 -173068
832782713237171840 353684 320416 338662 -173035
832782713255383552 353759 320496 338714 -173044
832782713273595264 353914 320621 338645 -173093
832782713291806848 354164 320906 338666 -173040
832782713310018560 354460 321206 338682 -173000
832782713328230272 354639 321379 338663 -173027
832782713346441984 354664 321368 338703 -172952
832782713364653696 354360 321173 338700 -172997
832782713382865408 353963 320732 338650 -173014
832782713401076992 353470 320251 338646 -172983
832782713419288704 353092 319787 338721 -172999
832782713437500416 352803 319533 338623 -172974
832782713455712128 352823 319422 338647 -173005
832782713473923840 352947 319601 338680 -172963
832782713492135424 353096 319780 338627 -173082
832782713510347136 353341 320071 338635 -173005
832782713528558848 353552 320233 338610 -173036
832782713546770560 353770 320471 338616 -173040
832782713564982272 353744 320498 338676 -173026
832782713583193984 353788 320505 338697 -172943
832782713601405568 353861 320609 338682 -173013
832782713619617280 354095 320899 338666 -173046
832782713637828992 354393 321053 338654 -173014
832782713656040704 354649 321331 338648 -172997
832782713674252416 354707 321428 338688 -173005
832782713692464000 354537 321223 338647 -173062
832782713710675712 354107 320803 338636 -173054
832782713728887424 353611 320309 338679 -173044
832782713747099136 353131 319890 338676 -173048
832782713765310848 352830 319583 338683 -173029
832782713783522560 352818 319515 338693 -173028
832782713801734144 352883 319588 338666 -172992
832782713819945856 353059 319747 338639 -173004
832782713838157568 353343 320025 338692 -172988
832782713856369280 353483 320235 338615 -173011
832782713874580954 353615 320328 338656 -173011
832782713892794112 353664 320359 338673 -172994
832782713911007232 353678 320390 338603 -172980
832782713929220352 353760 320505 338511 -172996
832782713947433600 353990 320763 338637 -173024
832782713965646720 354234 320966 338607 -173034
832782713983859840 354520 321227 338648 -173036
832782714002072960 354704 321364 338653 -172995
832782714020286080 354615 321295 338654 -172969
832782714038499200 354221 320924 338629 -172990
832782714056712448 353839 320482 338665 -172972
832782714074925568 353302 320010 338664 -173024
832782714093138688 352891 319650 338678 -173059
832782714111351808 352773 319519 338659 -173045
832782714129564928 352797 319515 338640 -173012
832782714147778048 352941 319719 338686 -172990
832782714165991296 353195 319985 338682 -172997
832782714184204416 353422 320116 338606 -173012
832782714202417536 353554 320247 338637 -173006
832782714220630656 353667 320423 338665 -173026
832782714238843776 353655 320416 338641 -173018
832782714257057024 353796 320503 338687 -172986
832782714275270144 353962 320682 338645 -172992
832782714293483264 354191 320974 338652 -173023
832782714311696384 354463 321216 338619 -173022
832782714329909504 354661 321379 338640 -172968
832782714348122624 354635 321407 338660 -173006
832782714366335872 354310 321068 338654 -173030
832782714384548992 353861 320646 338622 -173038
832782714402762112 353466 320199 338699 -173017
832782714420975232 353018 319728 338684 -173043
832782714439188352 352762 319522 338667 -173022
832782714457401472 352710 319482 338676 -172963
832782714475614720 352934 319697 338654 -173025
832782714493827840 353206 319861 338703 -172994
832782714512040960 353428 320063 338607 -173041
832782714530254080 353590 320267 338649 -173021
832782714548467200 353675 320299 338675 -173016
832782714566680366 353720 320363 338661 -173012
832782714584891904 353743 320504 338634 -172991
832782714603103488 353898 320564 338612 -173063
832782714621315200 354113 320794 338651 -173018
832782714639526784 354366 321145 338712 -173003
832782714657738368 354583 321401 338666 -173004
832782714675949952 354678 321429 338725 -172962
832782714694161664 354511 321198 338690 -172962
832782714712373248 354048 320761 338626 -173026
832782714730584832 353574 320285 338647 -173040
832782714748796416 353134 319877 338661 -173010
832782714767008128 352845 319530 338592 -173068
832782714785219712 352713 319415 338585 -173105
832782714803431296 352853 319524 338644 -173042
832782714821642880 353001 319718 338592 -173011
832782714839854592 353304 319969 338610 -172977
832782714858066176 353438 320180 338642 -173079
832782714876277760 353537 320342 338594 -173071
832782714894489344 353710 320435 338649 -172982
832782714912701056 353732 320503 338697 -172954
832782714930912640 353840 320570 338633 -173010
832782714949124224 354065 320758 338583 -173038
832782714967335808 354362 321049 338630 -173007
832782714985547520 354607 321283 338634 -173035
832782715003759104 354712 321430 338658 -173011
832782715021970688 354484 321161 338528 -173103
832782715040182272 354192 320888 338602 -173079
832782715058393984 353664 320431 338585 -173039
832782715076605568 353229 319991 338632 -173042
832782715094817152 352911 319608 338602 -173070
832782715113028736 352762 319488 338602 -173008
832782715131240448 352821 319515 338591 -173012
832782715149452032 352951 319728 338546 -173097
832782715167663616 353255 320021 338614 -173034
832782715185875200 353411 320199 338685 -173052
832782715204086912 353623 320291 338630 -173065
832782715222298496 353580 320376 338605 -173090
832782715240510080 353689 320437 338628 -173054
832782715258721784 353819 320473 338633 -173012
832782715276934912 353970 320642 338599 -173029
832782715295148032 354265 320946 338602 -173012
832782715313361024 354492 321163 338614 -173006
832782715331574144 354655 321407 338611 -173006
832782715349787136 354655 321365 338603 -173014
832782715368000256 354395 321058 338670 -173064
832782715386213248 353882 320561 338639 -173094
832782715404426368 353403 320134 338669 -173020
832782715422639360 352971 319665 338627 -173006
832782715440852480 352784 319510 338633 -173044
832782715459065472 352811 319532 338666 -173017
832782715477278592 352971 319650 338600 -173090
832782715495491584 353198 319838 338713 -173100
832782715513704704 353410 320051 338691 -173023
832782715531917696 353703 320375 338668 -172978
832782715550130816 353682 320374 338607 -173038
832782715568343808 353628 320399 338612 -173030
832782715586556928 353771 320478 338641 -173011
832782715604770048 353913 320629 338608 -173021
832782715622983040 354122 320882 338594 -173036
832782715641196160 354391 321103 338586 -173005
832782715659409152 354667 321322 338588 -173033
832782715677622272 354651 321312 338588 -173099
832782715695835264 354363 321174 338645 -173026
832782715714048384 353927 320696 338593 -173096
832782715732261376 353531 320252 338663 -173063
832782715750474496 353066 319812 338612 -173067
832782715768687488 352808 319498 338649 -173039
832782715786900608 352698 319390 338623 -173093
832782715805113600 352904 319595 338628 -172971
832782715823326720 353043 319752 338614 -173073
832782715841539712 353311 319991 338619 -173056
832782715859752832 353475 320220 338590 -173073
832782715877965952 353580 320317 338582 -173121
832782715896178944 353641 320338 338579 -173048
832782715914392064 353646 320422 338578 -173058
832782715932605004 353859 320596 338636 -173067
832782715950818176 354083 320828 338683 -172991
832782715969031296 354330 321069 338674 -173030
832782715987244416 354519 321263 338614 -173080
832782716005457664 354611 321343 338636 -173038
832782716023670784 354431 321197 338619 -173044
832782716041883904 354256 320936 338679 -173078
832782716060097024 353710 320388 338610 -173048
832782716078310144 353223 319914 338606 -173010
832782716096523264 352882 319594 338611 -173019
832782716114736512 352726 319434 338645 -173039
832782716132949632 352780 319499 338648 -172995
832782716151162752 352962 319754 338597 -173029
832782716169375872 353242 320027 338617 -173057
832782716187588992 353424 320150 338544 -173047
832782716205802112 353530 320266 338550 -173034
832782716224015360 353591 320318 338607 -173093
832782716242228480 353664 320365 338637 -173039
832782716260441600 353741 320454 338620 -173102
832782716278654720 353911 320593 338566 -173051
832782716296867840 354146 320889 338594 -173010
832782716315081088 354448 321170 338589 -173060
832782716333294208 354651 321275 338585 -173079
832782716351507328 354567 321219 338606 -173072
832782716369720448 354227 320906 338618 -173030
832782716387933568 353795 320487 338556 -173081
832782716406146688 353381 320084 338635 -173035
832782716424359936 352996 319671 338649 -173020
832782716442573056 352785 319427 338592 -173081
832782716460786176 352746 319441 338598 -173020
832782716478999296 352865 319563 338600 -173075
832782716497212416 353145 319836 338592 -173038
832782716515425536 353344 320020 338603 -173099
832782716533638784 353543 320269 338661 -173080
832782716551851904 353640 320339 338591 -173068
832782716570065024 353609 320378 338568 -173100
832782716588278144 353774 320439 338624 -173026
832782716606491274 353826 320597 338596 -173052
832782716624703616 354112 320907 338631 -173052
832782716642915968 354384 321169 338648 -173064
832782716661128448 354609 321406 338635 -173078
832782716679340800 354669 321350 338646 -173064
832782716697553152 354376 321063 338636 -173036
832782716715765632 353880 320630 338573 -173106
832782716733977984 353470 320181 338656 -173069
832782716752190464 352993 319811 338599 -173047
832782716770402816 352792 319490 338556 -173054
832782716788615168 352686 319388 338575 -173034
832782716806827648 352873 319549 338580 -173094
832782716825040000 353040 319822 338562 -173033
832782716843252352 353344 320012 338597 -173059
832782716861464832 353525 320230 338618 -173037
832782716879677184 353538 320314 338623 -173009
832782716897889536 353601 320339 338613 -173008
832782716916102016 353693 320471 338649 -173024
832782716934314368 353839 320567 338688 -172997
832782716952526720 354061 320817 338651 -173033
832782716970739200 354395 321082 338646 -172987
832782716988951552 354575 321323 338619 -172994
832782717007164032 354554 321368 338596 -173028
832782717025376384 354501 321237 338615 -173004
832782717043588736 354085 320819 338581 -173074
832782717061801216 353604 320339 338575 -173093
832782717080013568 353173 319893 338685 -173086
832782717098225920 352799 319513 338595 -173090
832782717116438400 352652 319389 338517 -173062
832782717134650752 352837 319529 338568 -173031
832782717152863104 353003 319717 338572 -173074
832782717171075584 353273 319990 338551 -173115
832782717189287936 353457 320214 338600 -173080
832782717207500416 353579 320320 338591 -173105
832782717225712768 353579 320325 338535 -173089
832782717243925120 353715 320440 338581 -173035
832782717262137600 353730 320507 338549 -173042
832782717280349952 353931 320624 338557 -173089
832782717298562304 354253 320987 338602 -173068
832782717316774784 354498 321181 338528 -173069
832782717334987136 354736 321445 338614 -173002
832782717353199594 354544 321259 338606 -173078
832782717371411968 354225 320974 338609 -173034
832782717389624320 353658 320447 338574 -173112
832782717407836544 353201 319986 338581 -173045
832782717426048896 352873 319594 338571 -173056
832782717444261248 352717 319387 338582 -173073
832782717462473600 352781 319432 338637 -172995
832782717480685824 352969 319599 338540 -173057
832782717498898176 353234 319898 338606 -173038
832782717517110528 353436 320183 338556 -173091
832782717535322880 353605 320307 338576 -173071
832782717553535104 353648 320390 338566 -173123
832782717571747456 353618 320358 338548 -173061
832782717589959808 353689 320435 338588 -173064
832782717608172160 353887 320634 338631 -173057
832782717626384384 354047 320902 338607 -173073
832782717644596736 354332 321189 338548 -173112
832782717662809088 354597 321378 338625 -173039
832782717681021312 354495 321309 338584 -173167
832782717699233664 354303 321025 338623 -173073
832782717717446016 353836 320571 338567 -173076
832782717735658368 353350 320085 338575 -173074
832782717753870592 352998 319704 338593 -173044
832782717772082944 352756 319469 338594 -173092
832782717790295296 352721 319473 338630 -173056
832782717808507648 352822 319597 338642 -173087
832782717826719872 353070 319840 338618 -173038
832782717844932224 353274 320020 338543 -173043
832782717863144576 353500 320179 338560 -173041
832782717881356800 353612 320304 338656 -173027
832782717899569152 353599 320389 338641 -173065
832782717917781504 353657 320427 338632 -173078
832782717935993856 353874 320524 338582 -173069
832782717954206080 354093 320823 338532 -173111
832782717972418432 354319 321078 338539 -173040
832782717990630784 354589 321301 338579 -173045
832782718008843136 354658 321368 338548 -173006
832782718027055346 354587 321299 338572 -173099
832782718045266944 354069 320800 338510 -173095
832782718063478528 353543 320209 338528 -173053
832782718081690240 353108 319805 338589 -173072
832782718099901824 352797 319540 338586 -173093
832782718118113408 352691 319412 338576 -173107
832782718136324992 352794 319526 338558 -173079
832782718154536704 353061 319785 338596 -173067
832782718172748288 353252 319987 338642 -173067
832782718190959872 353415 320239 338640 -173065
832782718209171456 353509 320317 338651 -173080
832782718227383168 353616 320268 338548 -173072
832782718245594752 353667 320391 338551 -173018
832782718263806336 353723 320513 338560 -173057
832782718282017920 354002 320740 338624 -173063
832782718300229632 354259 320945 338592 -173029
832782718318441216 354566 321272 338646 -172992
832782718336652800 354649 321362 338622 -173064
832782718354864384 354536 321290 338609 -173052
832782718373076096 354134 320902 338577 -173055
832782718391287680 353609 320416 338543 -173106
832782718409499264 353188 319982 338580 -173042
832782718427710848 352914 319611 338608 -173031
832782718445922560 352734 319407 338630 -173071
832782718464134144 352801 319496 338635 -173064
832782718482345728 352982 319662 338640 -173068
832782718500557312 353217 319870 338593 -173063
832782718518769024 353421 320085 338637 -173071
832782718536980608 353678 320428 338656 -173040
832782718555192192 353662 320396 338613 -173055
832782718573403776 353628 320324 338579 -173081
832782718591615488 353740 320469 338534 -173063
832782718609827072 353915 320558 338571 -173017
832782718628038656 354175 320921 338533 -173016
832782718646250240 354426 321150 338592 -173024
832782718664461926 354624 321380 338613 -172960
832782718682675712 354575 321275 338613 -172989
832782718700889472 354283 320964 338564 -173072
832782718719103360 353852 320536 338555 -173046
832782718737317120 353337 320030 338574 -173096
832782718755530880 352946 319663 338534 -173132
832782718773744640 352744 319433 338603 -173105
832782718791958528 352677 319417 338591 -173080
832782718810172288 352922 319595 338572 -173107
832782718828386048 353137 319859 338588 -173076
832782718846599936 353373 320093 338586 -173112
832782718864813696 353520 320256 338619 -173043
832782718883027456 353555 320289 338581 -173086
832782718901241216 353640 320346 338588 -173044
832782718919455104 353695 320405 338552 -173046
832782718937668864 353873 320493 338572 -173042
832782718955882624 354096 320786 338622 -173004
832782718974096512 354405 321110 338599 -173047
832782718992310272 354632 321280 338576 -173031
832782719010524032 354577 321358 338568 -173090
832782719028737792 354428 321167 338623 -173008
832782719046951680 354065 320794 338568 -173058
832782719065165440 353579 320268 338552 -173056
832782719083379200 353179 319877 338595 -172988
832782719101593088 352837 319551 338568 -173051
832782719119806848 352741 319482 338603 -173014
832782719138020608 352864 319610 338588 -173037
832782719156234368 353041 319759 338491 -173088
832782719174448256 353271 320036 338595 -173041
832782719192662016 353440 320174 338588 -173060
832782719210875776 353512 320249 338534 -173111
832782719229089664 353531 320301 338559 -173121
832782719247303424 353695 320339 338579 -173073
832782719265517184 353815 320489 338613 -173067
832782719283730944 354001 320758 338613 -173074
832782719301944800 354327 321001 338579 -173065
832782719320158848 354564 321284 338575 -173064
832782719338372864 354624 321367 338594 -173067
832782719356586880 354433 321153 338503 -173111
832782719374800896 354117 320873 338572 -173026
832782719393014912 353624 320352 338595 -173044
832782719411228928 353130 319938 338556 -173022
832782719429442944 352855 319610 338575 -172995
832782719447656960 352716 319449 338599 -173040
832782719465870976 352799 319532 338603 -173028
832782719484084992 353097 319796 338595 -173024
832782719502299008 353301 320024 338632 -173007
832782719520513024 353443 320179 338563 -173043
832782719538727040 353563 320312 338596 -173072
832782719556941056 353627 320310 338555 -173019
832782719575155072 353699 320322 338578 -173073
832782719593369088 353727 320416 338599 -173065
832782719611583104 353959 320652 338617 -173057
832782719629797120 354224 320920 338618 -173089
832782719648011136 354439 321152 338507 -173093
832782719666225152 354644 321353 338567 -173080
832782719684439168 354602 321249 338573 -173053
832782719702653184 354304 320980 338577 -172990
832782719720867200 353775 320447 338561 -173012
832782719739081216 353330 319987 338551 -173027
832782719757295232 352951 319584 338567 -172994
832782719775509248 352696 319430 338622 -173029
832782719793723264 352708 319462 338692 -173096
832782719811937280 352891 319646 338609 -173108
832782719830151296 353099 319877 338626 -173104
832782719848365312 353319 320081 338569 -173041
832782719866579328 353489 320282 338614 -173023
832782719884793344 353542 320288 338603 -173048
832782719903007360 353606 320338 338569 -173077
832782719921221376 353700 320468 338560 -173054
832782719939435296 353891 320630 338573 -173021
832782719957648896 354155 320796 338572 -173052
832782719975862528 354428 321077 338613 -173069
832782719994076288 354786 321348 338651 -173073
832782720012289920 354722 321342 338602 -173048
832782720030503552 354358 321088 338568 -173040
832782720048717184 353923 320614 338605 -173078
832782720066930944 353435 320232 338657 -173071
832782720085144576 353045 319803 338600 -173067
832782720103358208 352753 319454 338571 -173117
832782720121571840 352682 319447 338541 -173115
832782720139785600 352827 319581 338606 -173048
832782720157999232 353046 319762 338549 -173064
832782720176212864 353328 320056 338610 -173035
832782720194426496 353498 320221 338642 -173030
832782720212640256 353572 320244 338620 -173073
832782720230853888 353621 320305 338564 -173047
832782720249067520 353677 320397 338588 -173045
832782720267281152 353765 320498 338592 -173106
832782720285494912 353961 320681 338555 -173071
832782720303708544 354258 321015 338612 -173079
832782720321922176 354577 321286 338612 -173026
832782720340135808 354645 321336 338603 -173033
832782720358349568 354457 321156 338603 -173075
832782720376563200 354128 320814 338592 -173043
832782720394776832 353611 320291 338555 -173055
832782720412990464 353206 319898 338602 -173093
832782720431204224 352859 319574 338551 -173023
832782720449417856 352701 319403 338573 -173029
832782720467631488 352781 319468 338550 -172988
832782720485845120 353020 319704 338551 -173035
832782720504058880 353161 319963 338556 -173053
832782720522272512 353401 320196 338626 -173051
832782720540486144 353459 320255 338627 -173075
832782720558699776 353479 320284 338526 -173045
832782720576913536 353632 320341 338545 -173069
832782720595127168 353775 320436 338585 -173055
832782720613340800 353982 320650 338576 -173068
832782720631554546 354262 320994 338571 -173094
832782720649768832 354504 321182 338538 -173091
832782720667983104 354650 321356 338583 -173087
832782720686197376 354516 321194 338556 -173081
832782720704411648 354166 320907 338523 -173026
832782720722625792 353762 320514 338595 -173044
832782720740840064 353239 319959 338588 -173072
832782720759054336 352867 319619 338583 -173058
832782720777268608 352738 319402 338599 -173115
832782720795482880 352723 319483 338566 -173089
832782720813697152 352900 319650 338603 -173068
832782720831911424 353085 319858 338581 -173112
832782720850125696 353427 320097 338618 -173038
832782720868339840 353560 320252 338515 -173029
832782720886554112 353595 320278 338543 -173061
832782720904768384 353595 320363 338612 -173085
832782720922982656 353740 320433 338652 -173103
832782720941196928 353865 320615 338575 -173092
832782720959411200 354176 320887 338592 -173005
832782720977625472 354512 321184 338620 -173004
832782720995839744 354601 321306 338530 -173010
832782721014053888 354571 321275 338559 -173016
832782721032268160 354278 320992 338592 -173071
832782721050482432 353913 320638 338593 -173071
832782721068696704 353406 320097 338614 -173033
832782721086910976 352996 319697 338583 -173050
832782721105125248 352712 319458 338575 -173078
832782721123339520 352722 319381 338544 -173024
832782721141553792 352830 319556 338524 -173095
832782721159767936 353082 319759 338505 -173034
832782721177982208 353279 319993 338493 -173076
832782721196196480 353496 320231 338611 -173052
832782721214410752 353586 320368 338560 -173062
832782721232625024 353643 320378 338579 -172986
832782721250839296 353700 320431 338609 -173044
832782721269053568 353831 320566 338505 -173099
832782721287267840 354055 320828 338558 -173054
832782721305482014 354349 321057 338578 -173045
832782721323694848 354553 321261 338524 -173041
832782721341907712 354600 321344 338507 -173123
832782721360120576 354415 321156 338563 -173070
832782721378333440 354027 320746 338549 -173108
832782721396546304 353486 320253 338512 -173082
832782721414759168 353061 319777 338578 -173023
832782721432972032 352781 319523 338572 -173027
832782721451184768 352677 319378 338568 -173034
832782721469397632 352733 319482 338542 -173088
832782721487610496 352997 319707 338550 -173003
832782721505823360 353245 319997 338544 -173041
832782721524036224 353486 320165 338565 -173074
832782721542249088 353663 320407 338608 -173050
832782721560461952 353665 320390 338605 -173027
832782721578674816 353642 320341 338563 -173107
832782721596887680 353725 320507 338534 -173078
832782721615100544 353935 320711 338567 -173034
832782721633313408 354280 321017 338567 -173042
832782721651526272 354504 321224 338572 -173047
832782721669739008 354615 321378 338555 -173019
832782721687951872 354488 321211 338598 -173039
832782721706164736 354159 320837 338523 -173038
832782721724377600 353632 320372 338579 -173048
832782721742590464 353250 319980 338613 -173022
832782721760803328 352889 319644 338588 -173043
832782721779016192 352720 319430 338571 -173055
832782721797229056 352796 319457 338667 -172994
832782721815441920 352952 319679 338649 -173019
832782721833654784 353211 319854 338624 -172974
832782721851867648 353378 320072 338534 -173072
832782721870080512 353574 320232 338616 -173087
832782721888293376 353665 320355 338581 -173091
832782721906506112 353639 320366 338549 -173063
832782721924718976 353766 320410 338559 -173067
832782721942931840 353958 320656 338577 -172972
832782721961144704 354181 320878 338567 -173033
832782721979357602 354449 321153 338561 -172999
832782721997570176 354581 321348 338522 -173054
832782722015782784 354567 321309 338589 -173057
832782722033995264 354291 320970 338539 -173065
832782722052207872 353778 320507 338555 -173041
832782722070420480 353339 320045 338531 -173026
832782722088633088 352931 319643 338549 -173045
832782722106845568 352763 319502 338540 -173071
832782722125058176 352760 319427 338544 -173074
832782722143270784 352893 319595 338590 -173044
832782722161483392 353111 319872 338602 -173089
832782722179695872 353339 320048 338560 -173061
832782722197908480 353462 320188 338547 -173055
832782722216121088 353578 320257 338588 -173010
832782722234333696 353576 320332 338532 -173065
832782722252546176 353703 320371 338550 -173095
832782722270758784 353886 320575 338578 -173055
832782722288971392 354117 320803 338574 -173016
832782722307184000 354344 321129 338585 -173057
832782722325396480 354616 321306 338573 -173052
832782722343609088 354599 321383 338581 -173112
832782722361821696 354423 321160 338546 -173042
832782722380034304 354010 320679 338589 -173071
832782722398246784 353498 320236 338557 -173052
832782722416459392 353077 319753 338533 -173009
832782722434672000 352775 319457 338545 -173054
832782722452884608 352728 319373 338539 -173024
832782722471097088 352795 319465 338546 -173046
832782722489309696 353055 319717 338582 -173085
832782722507522304 353259 319948 338502 -173109
832782722525734912 353430 320179 338521 -173041
832782722543947392 353573 320289 338601 -173024
832782722562160000 353528 320327 338523 -173074
832782722580372608 353674 320373 338586 -173051
832782722598585216 353826 320510 338559 -173061
832782722616797752 354037 320712 338560 -173074
832782722635009408 354244 320950 338561 -173097
832782722653221120 354542 321204 338539 -173097
832782722671432704 354662 321335 338513 -173080
832782722689644416 354510 321265 338586 -173021
832782722707856000 354172 320833 338521 -173020
832782722726067712 353632 320376 338600 -173033
832782722744279424 353200 319934 338572 -173052
832782722762491008 352822 319584 338600 -173043
832782722780702720 352728 319442 338578 -173053
832782722798914304 352815 319451 338595 -173029
832782722817126016 352975 319673 338547 -173094
832782722835337728 353219 319984 338546 -173079
832782722853549312 353470 320131 338560 -173100
832782722871761024 353530 320257 338526 -173082
832782722889972608 353605 320267 338491 -173090
832782722908184320 353642 320392 338559 -173086
832782722926395904 353716 320446 338531 -173016
832782722944607616 353922 320630 338504 -173034
832782722962819328 354171 320917 338575 -173040
832782722981030912 354456 321159 338634 -173050
832782722999242624 354595 321253 338546 -173071
832782723017454208 354526 321195 338528 -173048
832782723035665920 354211 320960 338481 -173110
832782723053877632 353752 320456 338478 -173098
832782723072089216 353225 319970 338495 -173072
832782723090300928 352966 319653 338530 -173070
832782723108512512 352706 319407 338507 -173059
832782723126724224 352686 319397 338489 -173070
832782723144935936 352903 319564 338548 -173036
832782723163147520 353116 319799 338546 -173051
832782723181359232 353320 320035 338596 -173086
832782723199570816 353492 320225 338594 -173093
832782723217782528 353593 320277 338576 -172996
832782723235994240 353565 320335 338546 -173070
832782723254205846 353635 320403 338499 -173041
832782723272421120 353836 320531 338496 -173107
832782723290636416 354094 320850 338558 -173076
832782723308851712 354377 321088 338590 -173080
832782723327067008 354656 321329 338557 -173047
832782723345282304 354582 321317 338599 -173085
832782723363497728 354331 321061 338565 -173077
832782723381713024 353912 320625 338551 -173098
832782723399928320 353439 320170 338559 -173081
832782723418143616 352995 319734 338539 -173036
832782723436358912 352708 319425 338508 -173070
832782723454574208 352676 319419 338563 -173051
832782723472789504 352792 319500 338563 -173053
832782723491004800 353008 319737 338502 -173043
832782723509220224 353300 320000 338585 -173057
832782723527435520 353460 320195 338541 -173047
832782723545650816 353510 320286 338534 -173064
832782723563866112 353569 320371 338573 -173064
832782723582081408 353632 320346 338513 -173067
832782723600296704 353796 320533 338520 -173029
832782723618512000 354014 320748 338543 -173082
832782723636727296 354275 320994 338546 -173041
832782723654942592 354565 321249 338517 -173031
832782723673158016 354590 321348 338532 -173082
832782723691373312 354448 321137 338580 -173041
832782723709588608 354046 320794 338578 -172996
832782723727803904 353575 320270 338544 -173014
832782723746019200 353133 319838 338499 -173074
832782723764234496 352805 319544 338562 -173085
832782723782449792 352699 319423 338577 -173053
832782723800665088 352679 319490 338505 -173102
832782723818880384 352916 319667 338572 -173063
832782723837095808 353087 319873 338503 -173091
832782723855311104 353308 320127 338526 -173043
832782723873526400 353497 320264 338528 -173057
832782723891741696 353575 320325 338558 -173081
832782723909956992 353648 320351 338558 -173075
832782723928172288 353733 320444 338603 -173028
832782723946387660 353880 320664 338568 -173068
832782723964600448 354213 320917 338580 -173031
832782723982813184 354465 321120 338568 -173077
832782724001025920 354542 321308 338571 -173109
832782724019238528 354505 321219 338610 -173053
832782724037451264 354329 321061 338581 -173090
832782724055664000 353791 320488 338566 -173044
832782724073876736 353217 320007 338573 -173070
832782724092089344 352894 319634 338599 -173051
832782724110302080 352652 319452 338562 -173104
832782724128514816 352709 319475 338493 -173096
832782724146727552 352888 319629 338548 -173073
832782724164940160 353072 319845 338541 -173075
832782724183152896 353335 320097 338555 -173059
832782724201365632 353539 320258 338561 -173033
832782724219578368 353531 320253 338528 -173045
832782724237791104 353623 320302 338511 -173091
832782724256003712 353652 320380 338499 -173089
832782724274216448 353815 320576 338557 -173052
832782724292429184 354108 320909 338513 -173108
832782724310641920 354401 321158 338547 -173074
832782724328854528 354600 321324 338563 -173100
832782724347067264 354542 321228 338542 -173069
832782724365280000 354269 321032 338510 -173041
832782724383492736 353877 320605 338547 -173059
832782724401705344 353345 320073 338449 -173085
832782724419918080 352948 319703 338493 -173120
832782724438130816 352740 319442 338588 -173054
832782724456343552 352711 319429 338533 -173064
832782724474556288 352831 319573 338548 -173100
832782724492768896 353072 319777 338574 -173071
832782724510981632 353303 319990 338502 -173027
832782724529194368 353469 320156 338528 -173037
832782724547407104 353623 320300 338498 -173089
832782724565619712 353627 320317 338513 -173072
832782724583832386 353694 320463 338613 -173040
832782724602045184 353702 320551 338492 -173115
832782724620257920 354023 320792 338540 -173033
832782724638470656 354238 321023 338498 -173097
832782724656683392 354542 321279 338589 -173087
832782724674896128 354595 321352 338576 -173068
832782724693108992 354397 321141 338555 -173024
832782724711321728 354013 320732 338528 -173085
832782724729534464 353475 320251 338551 -173117
832782724747747200 353061 319804 338565 -173089
832782724765959936 352808 319540 338602 -173039
832782724784172672 352686 319413 338608 -173060
832782724802385408 352758 319527 338512 -173036
832782724820598144 352930 319746 338542 -173098
832782724838811008 353277 319960 338572 -173019
832782724857023744 353407 320165 338596 -173093
832782724875236480 353520 320208 338489 -173077
832782724893449216 353526 320290 338486 -173102
832782724911661952 353582 320370 338523 -173132
832782724929874688 353733 320448 338502 -173128
832782724948087424 353918 320663 338532 -173081
832782724966300160 354238 320956 338550 -173062
832782724984512896 354428 321177 338515 -173108
832782725002725760 354570 321378 338529 -173100
832782725020938496 354478 321232 338543 -173071
832782725039151232 354110 320840 338550 -173074
832782725057363968 353676 320431 338589 -173027
832782725075576704 353267 319941 338527 -173074
832782725093789440 352873 319550 338509 -173010
832782725112002176 352702 319404 338544 -173027
832782725130214912 352703 319423 338496 -173040
832782725148427776 352882 319623 338532 -173052
832782725166640512 353094 319894 338488 -173113
832782725184853248 353383 320100 338591 -173034
832782725203065984 353528 320283 338609 -172994
832782725221278720 353536 320373 338556 -173031
832782725239491456 353599 320314 338548 -173089
832782725257704192 353697 320389 338533 -173094
832782725275916928 353850 320521 338487 -173070
832782725294129682 354085 320810 338541 -173061
832782725312342016 354442 321069 338540 -173054
832782725330554368 354673 321365 338554 -173057
832782725348766848 354573 321347 338599 -173041
832782725366979200 354292 321009 338541 -173017
832782725385191552 353837 320573 338584 -173027
832782725403404032 353354 320073 338566 -173028
832782725421616384 353009 319662 338544 -173038
832782725439828864 352781 319412 338528 -173059
832782725458041216 352738 319435 338549 -173044
832782725476253568 352865 319544 338530 -173033
832782725494466048 353169 319847 338531 -173040
832782725512678400 353328 319975 338514 -173092
832782725530890752 353493 320188 338498 -173121
832782725549103232 353593 320316 338527 -173059
832782725567315584 353569 320310 338490 -173121
832782725585527936 353726 320453 338583 -173092
832782725603740416 353844 320579 338609 -173074
832782725621952768 354096 320733 338583 -173048
832782725640165120 354347 321072 338572 -173054
832782725658377600 354552 321318 338548 -173063
832782725676589952 354617 321370 338576 -173076
832782725694802432 354412 321142 338580 -173052
832782725713014784 353984 320675 338560 -173102
832782725731227136 353508 320232 338543 -173060
832782725749439616 353006 319753 338556 -173079
832782725767651968 352790 319512 338568 -173024
832782725785864320 352712 319461 338533 -173067
832782725804076800 352751 319515 338524 -173099
832782725822289152 352956 319717 338527 -173037
832782725840501504 353218 319940 338510 -173047
832782725858713984 353418 320162 338631 -173090
832782725876926336 353597 320232 338558 -173054
832782725895138816 353538 320270 338495 -173095
832782725913351168 353660 320338 338523 -173110
832782725931563520 353716 320479 338498 -173050
832782725949776000 353927 320674 338517 -173076
832782725967988352 354245 320941 338504 -173075
832782725986200704 354488 321228 338445 -173111
832782726004413184 354620 321372 338549 -173024
832782726022625536 354583 321336 338554 -173058
832782726040838000 354158 320913 338546 -173026
832782726059049472 353584 320336 338482 -173093
832782726077260928 353198 319952 338527 -173043
832782726095472384 352857 319555 338485 -173045
832782726113683840 352659 319431 338515 -173069
832782726131895296 352757 319450 338492 -173063
832782726150106752 352934 319676 338488 -173088
832782726168318208 353201 319875 338508 -173093
832782726186529664 353372 320086 338477 -173053
832782726204740992 353458 320175 338452 -173064
832782726222952448 353584 320284 338529 -173054
832782726241163904 353579 320361 338520 -173067
832782726259375360 353683 320496 338578 -173072
832782726277586816 353850 320539 338511 -173090
832782726295798272 354153 320907 338522 -173046
832782726314009728 354427 321195 338581 -173076
832782726332221184 354627 321349 338565 -173062
832782726350432640 354493 321284 338555 -173074
832782726368644096 354204 320977 338549 -173061
832782726386855552 353726 320486 338567 -173040
832782726405067008 353206 320007 338526 -173086
832782726423278464 352886 319582 338483 -173023
832782726441489920 352679 319450 338527 -173067
832782726459701248 352694 319438 338511 -173062
832782726477912704 352848 319592 338511 -172986
832782726496124160 353087 319819 338557 -173037
832782726514335616 353270 320005 338523 -173059
832782726532547072 353601 320303 338502 -173053
832782726550758528 353597 320318 338514 -173067
832782726568969984 353554 320343 338530 -173081
832782726587181440 353650 320440 338586 -173081
832782726605392896 353822 320469 338567 -173060
832782726623604352 354078 320763 338614 -173065
832782726641815808 354276 320991 338568 -173081
832782726660027264 354563 321267 338510 -173082
832782726678238720 354539 321223 338521 -173080
832782726696450094 354319 321039 338515 -173068
832782726714662272 353928 320585 338521 -173042
832782726732874496 353396 320061 338457 -173091
832782726751086848 352998 319643 338477 -173046
832782726769299072 352723 319454 338495 -173072
832782726787511296 352682 319368 338497 -173085
832782726805723648 352791 319531 338482 -173031
832782726823935872 353051 319725 338496 -172989
832782726842148224 353268 319964 338478 -173062
832782726860360448 353408 320180 338499 -173097
832782726878572672 353535 320251 338516 -173099
832782726896785024 353549 320271 338472 -173110
832782726914997248 353620 320362 338543 -173112
832782726933209472 353720 320439 338503 -173093
832782726951421824 353935 320703 338505 -173081
832782726969634048 354235 320935 338499 -173093
832782726987846272 354503 321220 338508 -173098
832782727006058624 354536 321306 338522 -173072
832782727024270848 354391 321112 338544 -173086
832782727042483200 354130 320843 338524 -173102
832782727060695424 353547 320311 338479 -173131
832782727078907648 353127 319889 338516 -173077
832782727097120000 352788 319489 338517 -173057
832782727115332224 352622 319412 338497 -173076
832782727133544448 352665 319512 338455 -173020
832782727151756800 352916 319643 338510 -173024
832782727169969024 353144 319878 338510 -173077
832782727188181248 353347 320081 338529 -173061
832782727206393600 353427 320186 338472 -173075
832782727224605824 353498 320268 338486 -173069
832782727242818176 353597 320336 338515 -173063
832782727261030400 353705 320386 338468 -173110
832782727279242624 353914 320632 338495 -173122
832782727297454976 354124 320917 338473 -173123
832782727315667200 354375 321135 338452 -173102
832782727333879562 354537 321260 338479 -173117
832782727352092672 354441 321229 338507 -173089
832782727370305792 354108 320920 338509 -173068
832782727388518912 353666 320404 338499 -173096
832782727406732160 353198 319912 338493 -173054
832782727424945280 352850 319599 338508 -173089
832782727443158400 352679 319375 338511 -173072
832782727461371520 352687 319380 338499 -173045
832782727479584640 352921 319574 338526 -173039
832782727497797760 353127 319817 338527 -173104
832782727516011008 353273 320080 338488 -173105
832782727534224128 353466 320213 338491 -173077
832782727552437248 353498 320297 338507 -173089
832782727570650368 353543 320367 338525 -173036
832782727588863488 353685 320416 338441 -173045
832782727607076608 353830 320591 338546 -173047
832782727625289856 354048 320830 338470 -173102
832782727643502976 354362 321091 338475 -173092
832782727661716096 354549 321314 338446 -173111
832782727679929216 354528 321281 338504 -173107
832782727698142336 354254 320947 338494 -173133
832782727716355456 353847 320601 338487 -173092
832782727734568704 353387 320047 338468 -173117
832782727752781824 352922 319654 338481 -173080
832782727770994944 352669 319418 338498 -173074
832782727789208064 352622 319398 338568 -173093
832782727807421184 352867 319483 338545 -173031
832782727825634432 353085 319762 338482 -173092
832782727843847552 353258 319976 338434 -173103
832782727862060672 353438 320173 338453 -173088
832782727880273792 353562 320224 338468 -173093
832782727898486912 353587 320299 338548 -173031
832782727916700032 353678 320377 338534 -173073
832782727934913280 353744 320477 338464 -173056
832782727953126400 353928 320740 338509 -173048
832782727971339540 354277 321001 338547 -173041
832782727989552256 354520 321264 338479 -173092
832782728007764992 354680 321496 338527 -173140
832782728025977600 354451 321196 338517 -173063
832782728044190336 354002 320776 338466 -173088
832782728062403072 353547 320316 338541 -173093
832782728080615680 353024 319825 338513 -173111
832782728098828416 352764 319459 338558 -173095
832782728117041152 352657 319350 338537 -173038
832782728135253760 352704 319433 338493 -173054
832782728153466496 353000 319690 338540 -173070
832782728171679232 353190 319939 338558 -173071
832782728189891840 353386 320167 338559 -173113
832782728208104576 353487 320277 338520 -173095
832782728226317312 353560 320352 338530 -173058
832782728244529920 353601 320416 338523 -173022
832782728262742656 353760 320484 338534 -173039
832782728280955392 353983 320622 338544 -173026
832782728299168000 354223 320954 338523 -173040
832782728317380736 354440 321216 338509 -173073
832782728335593472 354619 321304 338478 -173037
832782728353806080 354484 321225 338488 -173040
832782728372018816 354112 320894 338516 -173045
832782728390231552 353651 320420 338503 -173007
832782728408444160 353166 319942 338556 -173003
832782728426656896 352874 319582 338543 -173052
832782728444869632 352685 319379 338500 -173021
832782728463082240 352742 319442 338513 -173057
832782728481294976 352945 319650 338510 -173016
832782728499507712 353154 319838 338491 -173100
832782728517720320 353515 320200 338541 -173059
832782728535933056 353609 320231 338544 -173126
832782728554145792 353667 320314 338572 -173006
832782728572358400 353617 320334 338499 -173039
832782728590571124 353681 320401 338506 -173041
832782728608783104 353837 320575 338506 -173075
832782728626995072 354132 320858 338516 -173007
832782728645206912 354401 321144 338515 -173072
832782728663418880 354595 321297 338514 -173042
832782728681630720 354556 321207 338506 -172982
832782728699842688 354266 320998 338505 -173045
832782728718054528 353822 320547 338535 -173081
832782728736266496 353290 320022 338491 -173040
832782728754478336 352882 319674 338538 -173031
832782728772690304 352709 319444 338505 -173040
832782728790902144 352724 319441 338500 -173055
832782728809114112 352838 319627 338567 -173062
832782728827325952 353084 319720 338496 -173103
832782728845537920 353327 320041 338551 -173081
832782728863749760 353458 320150 338476 -173106
832782728881961728 353562 320240 338523 -173099
832782728900173568 353604 320278 338544 -173062
832782728918385536 353656 320382 338571 -173046
832782728936597376 353822 320528 338517 -173019
832782728954809344 354052 320803 338529 -173078
832782728973021184 354317 321083 338551 -173043
832782728991233152 354527 321269 338527 -173052
832782729009444992 354576 321379 338555 -173054
832782729027656960 354539 321237 338534 -173025
832782729045868800 354053 320750 338516 -173039
832782729064080768 353515 320306 338559 -173040
832782729082292608 353053 319837 338548 -173052
832782729100504576 352795 319515 338541 -173016
832782729118716416 352733 319410 338506 -173044
832782729136928384 352784 319519 338573 -173046
832782729155140224 353051 319778 338554 -173042
832782729173352192 353216 320024 338559 -173041
832782729191564032 353434 320219 338523 -173080
832782729209776000 353548 320335 338541 -173055
832782729227987840 353604 320373 338557 -173063
832782729246199808 353625 320355 338511 -173077
832782729264411618 353727 320521 338557 -173091
832782729282624768 353935 320656 338554 -173027
832782729300837888 354274 320900 338496 -173088
832782729319051008 354545 321195 338489 -173092
832782729337264256 354616 321370 338498 -173057
832782729355477376 354382 321164 338534 -173103
832782729373690496 354130 320793 338503 -173062
832782729391903616 353626 320414 338568 -173064
832782729410116736 353119 319922 338531 -173069
832782729428329856 352828 319605 338508 -173087
832782729446543104 352662 319384 338512 -173077
832782729464756224 352761 319463 338543 -173064
832782729482969344 352891 319690 338480 -173027
832782729501182464 353134 319923 338561 -173091
832782729519395584 353384 320022 338506 -173086
832782729537608704 353415 320167 338471 -173075
832782729555821952 353552 320204 338516 -173089
832782729574035072 353581 320290 338525 -173126
832782729592248192 353694 320388 338590 -173090
832782729610461312 353783 320562 338498 -173166
832782729628674432 354108 320885 338523 -173078
832782729646887680 354371 321100 338531 -173137
832782729665100800 354554 321182 338443 -173115
832782729683313920 354525 321188 338475 -173077
832782729701527040 354254 320923 338502 -173090
832782729719740160 353814 320480 338482 -173079
832782729737953280 353289 320059 338513 -173091
832782729756166528 352866 319617 338471 -173065
832782729774379648 352700 319419 338445 -173055
832782729792592768 352737 319359 338515 -173071
832782729810805888 352853 319548 338525 -173105
832782729829019008 353074 319806 338509 -173070
832782729847232128 353240 320060 338477 -173117
832782729865445376 353426 320172 338441 -173071
832782729883658496 353510 320258 338446 -173073
832782729901871616 353608 320257 338511 -173025
832782729920084736 353629 320338 338497 -173033
832782729938297856 353855 320531 338479 -173035
832782729956510976 354101 320728 338523 -173068
832782729974724172 354349 321001 338487 -173070
832782729992936704 354688 321417 338554 -173076
832782730011149184 354723 321385 338562 -173077
832782730029361536 354372 321085 338487 -173046
832782730047574016 353929 320679 338535 -173051
832782730065786496 353451 320231 338543 -173105
832782730083998848 353062 319780 338497 -173091
832782730102211328 352723 319455 338524 -173111
832782730120423808 352676 319433 338526 -173120
832782730138636288 352773 319445 338500 -173077
832782730156848640 353009 319710 338503 -173065
832782730175061120 353249 319969 338583 -173026
832782730193273600 353456 320137 338606 -173057
832782730211485952 353606 320273 338527 -173055
832782730229698432 353625 320353 338573 -173047
832782730247910912 353686 320387 338605 -173115
832782730266123264 353713 320417 338529 -173055
832782730284335744 353963 320631 338520 -173034
832782730302548224 354218 320877 338469 -173064
832782730320760704 354519 321160 338477 -173059
832782730338973056 354639 321299 338542 -173007
832782730357185536 354437 321103 338482 -173092
832782730375398016 354057 320811 338494 -173041
832782730393610368 353664 320341 338537 -173040
832782730411822848 353083 319850 338495 -173092
832782730430035328 352791 319490 338527 -173025
832782730448247680 352657 319378 338530 -173062
832782730466460160 352696 319407 338460 -173080
832782730484672640 352898 319650 338511 -173075
832782730502885120 353334 320070 338560 -173061
832782730521097472 353390 320135 338500 -173090
832782730539309952 353496 320196 338503 -173059
832782730557522432 353587 320275 338509 -173036
832782730575734784 353587 320336 338483 -173045
832782730593947264 353692 320390 338477 -173057
832782730612159744 353845 320646 338474 -173063
832782730630372096 354185 320857 338547 -173051
832782730648584502 354431 321125 338563 -173067
832782730666798336 354651 321333 338568 -173065
832782730685012224 354563 321256 338515 -173000
832782730703225984 354187 320890 338525 -173062
832782730721439872 353758 320468 338560 -173058
832782730739653760 353309 319963 338554 -173046
832782730757867520 352964 319675 338538 -173076
832782730776081408 352631 319376 338512 -173078
832782730794295296 352761 319476 338573 -173038
832782730812509056 352876 319552 338549 -173080
832782730830722944 353162 319847 338483 -173043
832782730848936832 353341 319991 338531 -173039
832782730867150592 353449 320171 338445 -173037
832782730885364480 353540 320252 338453 -173058
832782730903578240 353578 320290 338460 -173027
832782730921792128 353673 320391 338479 -173058
832782730940006016 353833 320526 338481 -173039
832782730958219776 354071 320786 338554 -173030
832782730976433664 354396 321050 338513 -173078
832782730994647552 354578 321334 338522 -173096
832782731012861312 354719 321475 338548 -173093
832782731031075200 354351 321097 338520 -173050
832782731049289088 353905 320666 338556 -173076
832782731067502848 353367 320063 338561 -173000
832782731085716736 353025 319695 338499 -173063
832782731103930624 352776 319482 338542 -173028
832782731122144384 352619 319389 338534 -173077
832782731140358272 352793 319551 338517 -173090
832782731158572160 352967 319737 338488 -173086
832782731176785920 353235 319975 338560 -173096
832782731194999808 353453 320144 338552 -173097
832782731213213696 353495 320273 338540 -173104
832782731231427456 353547 320297 338477 -173087
832782731249641344 353593 320421 338524 -173036
832782731267855232 353771 320531 338579 -173024
832782731286068992 353996 320723 338451 -173037
832782731304282880 354287 321024 338470 -173061
832782731322496712 354576 321297 338476 -173125
832782731340710144 354681 321338 338505 -173108
832782731358923520 354401 321112 338458 -173077
832782731377136896 353996 320769 338521 -173051
832782731395350272 353525 320268 338525 -173048
832782731413563648 352993 319775 338446 -173122
832782731431776896 352751 319482 338472 -173121
832782731449990272 352653 319404 338496 -173065
832782731468203648 352758 319466 338520 -173145
832782731486417024 353042 319713 338527 -173055
832782731504630400 353270 319934 338523 -173024
832782731522843776 353373 320076 338503 -173090
832782731541057152 353625 320242 338547 -173071
832782731559270528 353603 320221 338490 -173069
832782731577483776 353610 320291 338483 -173072
832782731595697152 353746 320412 338504 -173092
832782731613910528 353947 320655 338538 -173054
832782731632123904 354193 320934 338523 -173026
832782731650337280 354476 321156 338531 -173025
832782731668550656 354597 321331 338512 -173041
832782731686764032 354477 321222 338475 -173028
832782731704977408 354145 320924 338574 -173006
832782731723190656 353645 320375 338521 -173034
832782731741404032 353179 319931 338520 -173080
832782731759617408 352808 319515 338460 -173107
832782731777830784 352650 319365 338509 -173129
832782731796044160 352682 319452 338500 -173142
832782731814257536 352831 319577 338468 -173123
832782731832470912 353140 319796 338510 -173065
832782731850684288 353289 320067 338559 -173072
832782731868897536 353502 320203 338550 -173061
832782731887110912 353567 320249 338564 -173067
832782731905324288 353591 320274 338490 -173096
832782731923537664 353635 320320 338481 -173112
832782731941751040 353812 320555 338495 -173117
832782731959964318 354077 320782 338529 -173072
832782731978177152 354437 321084 338534 -173092
832782731996390016 354588 321267 338513 -173062
832782732014603008 354532 321287 338516 -173093
832782732032815872 354426 321150 338580 -173058
832782732051028864 353923 320636 338500 -173085
832782732069241728 353400 320090 338491 -173053
832782732087454720 352955 319680 338497 -173070
832782732105667584 352688 319440 338421 -173133
832782732123880576 352694 319429 338490 -173067
832782732142093440 352789 319518 338440 -173117
832782732160306432 353038 319731 338477 -173089
832782732178519296 353287 320002 338442 -173050
832782732196732288 353455 320164 338494 -173020
832782732214945152 353475 320270 338526 -173104
832782732233158144 353579 320271 338493 -173039
832782732251371008 353637 320341 338511 -173119
832782732269584000 353761 320474 338496 -173113
832782732287796864 353984 320785 338503 -173050
832782732306009856 354269 320969 338489 -173073
832782732324222720 354561 321230 338505 -173077
832782732342435584 354595 321298 338443 -173079
832782732360648576 354374 321093 338515 -173061
832782732378861440 354004 320724 338538 -172991
832782732397074432 353470 320138 338487 -173067
832782732415287296 353057 319714 338477 -173109
832782732433500288 352786 319432 338472 -173088
832782732451713152 352730 319333 338513 -173046
832782732469926144 352785 319474 338576 -173038
832782732488139008 352992 319724 338527 -173022
832782732506352000 353230 319926 338483 -173038
832782732524564864 353407 320119 338535 -173013
832782732542777856 353694 320388 338514 -173030
832782732560990720 353586 320341 338436 -173106
832782732579203712 353674 320395 338530 -173037
832782732597416676 353730 320505 338540 -173039
832782732615628672 353901 320680 338568 -173056
832782732633840640 354256 320959 338548 -173029
832782732652052736 354532 321296 338548 -173057
832782732670264704 354621 321349 338546 -173067
832782732688476800 354457 321227 338497 -173051
832782732706688768 354096 320815 338532 -173067
832782732724900864 353632 320340 338491 -173047
832782732743112832 353112 319896 338488 -173120
832782732761324928 352822 319502 338533 -173054
832782732779536896 352675 319394 338542 -173059
832782732797748992 352686 319434 338506 -173137
832782732815960960 352917 319684 338514 -173057
832782732834173056 353200 319847 338532 -173051
832782732852385024 353374 320080 338469 -173054
832782732870597120 353563 320252 338534 -173057
832782732888809088 353570 320317 338545 -173031
832782732907021184 353616 320300 338504 -173062
832782732925233152 353660 320366 338510 -173058
832782732943445248 353838 320578 338558 -173071
832782732961657216 354174 320904 338493 -173008
832782732979869312 354406 321110 338486 -173078
832782732998081280 354733 321441 338448 -173058
832782733016293248 354542 321339 338535 -173067
832782733034505344 354313 320991 338537 -173067
832782733052717312 353831 320438 338535 -173057
832782733070929408 353322 320032 338506 -173094
832782733089141376 352878 319619 338438 -173085
832782733107353472 352725 319425 338478 -173054
832782733125565440 352705 319433 338480 -173060
832782733143777536 352840 319557 338461 -173087
832782733161989504 353148 319833 338532 -173019
832782733180201600 353297 319993 338469 -173111
832782733198413568 353475 320174 338490 -173079
832782733216625664 353612 320282 338546 -173050
832782733234837632 353609 320270 338516 -173048
832782733253049728 353702 320411 338492 -173055
832782733271261746 353814 320545 338494 -173042
832782733289473280 354108 320789 338491 -173009
832782733307684864 354385 321067 338544 -173009
832782733325896576 354546 321256 338504 -173014
832782733344108160 354561 321311 338486 -173088
832782733362319744 354344 321068 338476 -173074
832782733380531328 353870 320666 338534 -173058
832782733398743040 353450 320182 338528 -173068
832782733416954624 352991 319757 338539 -173080
832782733435166208 352717 319445 338532 -173080
832782733453377792 352622 319466 338550 -173055
832782733471589504 352825 319534 338555 -173018
832782733489801088 352991 319676 338543 -173061
832782733508012672 353340 320029 338492 -173105
832782733526224256 353479 320247 338525 -173041
832782733544435968 353563 320294 338508 -173063
832782733562647552 353589 320353 338530 -173045
832782733580859136 353640 320334 338526 -173005
832782733599070720 353745 320446 338537 -173043
832782733617282432 353991 320702 338566 -173009
832782733635494016 354288 320992 338585 -173026
832782733653705600 354526 321202 338512 -173078
832782733671917184 354590 321298 338514 -173035
832782733690128896 354414 321193 338479 -173013
832782733708340480 354087 320802 338522 -173026
832782733726552064 353573 320287 338481 -173046
832782733744763648 353119 319859 338540 -173020
832782733762975360 352846 319499 338468 -173051
832782733781186944 352695 319398 338414 -173053
832782733799398528 352738 319425 338472 -173071
832782733817610112 352927 319635 338485 -173104
832782733835821824 353219 319889 338560 -173052
832782733854033408 353484 320114 338586 -173013
832782733872244992 353549 320195 338523 -173053
832782733890456576 353539 320282 338539 -173104
832782733908668288 353652 320311 338452 -173061
832782733926879872 353698 320429 338463 -173096
832782733945091456 353870 320640 338493 -173070
832782733963303040 354098 320887 338485 -173056
832782733981514790 354481 321171 338515 -173042
832782733999727616 354637 321290 338531 -173027
832782734017940480 354564 321219 338520 -173008
832782734036153344 354262 320913 338479 -173030
832782734054366080 353767 320439 338475 -173034
832782734072578944 353303 319967 338522 -173116
832782734090791808 352901 319616 338473 -173088
832782734109004672 352694 319429 338498 -173046
832782734127217536 352700 319446 338491 -173059
832782734145430272 352855 319603 338525 -173096
832782734163643136 353071 319827 338516 -173068
832782734181856000 353279 320012 338515 -173085
832782734200068864 353497 320248 338455 -173061
832782734218281600 353560 320265 338511 -173064
832782734236494464 353608 320309 338525 -173036
832782734254707328 353624 320386 338475 -173056
832782734272920192 353844 320551 338490 -173062
832782734291133056 354106 320779 338458 -173035
832782734309345792 354369 321077 338485 -173091
832782734327558656 354534 321294 338468 -173071
832782734345771520 354560 321260 338495 -173078
832782734363984384 354311 320979 338565 -173045
832782734382197248 353874 320594 338527 -172958
832782734400409984 353403 320119 338515 -172991
832782734418622848 352938 319703 338532 -173057
832782734436835712 352726 319480 338555 -173075
832782734455048576 352659 319424 338534 -173117
832782734473261440 352788 319580 338495 -173075
832782734491474176 352966 319725 338543 -173076
832782734509687040 353162 319970 338565 -173075
832782734527899904 353556 320289 338561 -173036
832782734546112768 353592 320331 338548 -173039
832782734564325632 353569 320325 338488 -173106
832782734582538368 353655 320308 338548 -173071
832782734600751232 353730 320492 338515 -173039
832782734618964096 354008 320775 338497 -173020
832782734637176960 354306 320974 338510 -172986
832782734655389696 354547 321262 338528 -173060
832782734673602560 354566 321306 338491 -173042
832782734691815424 354402 321143 338508 -173046
832782734710028280 354013 320783 338528 -173071
832782734728242048 353540 320233 338480 -173096
832782734746455808 353063 319827 338497 -173156
832782734764669440 352710 319474 338452 -173093
832782734782883200 352601 319368 338471 -173074
832782734801096960 352699 319425 338420 -173065
832782734819310592 352867 319663 338448 -173121
832782734837524352 353147 319879 338451 -173104
832782734855738112 353395 320063 338432 -173071
832782734873951744 353486 320249 338490 -173055
832782734892165504 353535 320274 338486 -173063
832782734910379264 353614 320337 338478 -173062
832782734928593024 353685 320441 338509 -173054
832782734946806656 353896 320687 338507 -173042
832782734965020416 354202 320916 338552 -173047
832782734983234176 354466 321214 338486 -173026
832782735001447808 354593 321277 338428 -173059
832782735019661568 354503 321224 338503 -173050
832782735037875328 354283 321014 338496 -173078
832782735056088960 353734 320505 338509 -173046
832782735074302720 353207 319978 338497 -173091
832782735092516480 352798 319560 338508 -173035
832782735110730112 352731 319430 338528 -173034
832782735128943872 352700 319417 338504 -173073
832782735147157632 352863 319625 338476 -173033
832782735165371264 353087 319770 338437 -173060
832782735183585024 353320 320043 338549 -173018
832782735201798784 353495 320276 338492 -173019
832782735220012544 353530 320293 338434 -173090
832782735238226176 353577 320327 338475 -173043
832782735256439936 353698 320403 338460 -173012
832782735274653696 353861 320533 338449 -173073
832782735292867328 354089 320802 338513 -173031
832782735311081088 354360 321051 338511 -173035
832782735329294848 354538 321306 338534 -173063
832782735347508480 354546 321309 338515 -173026
832782735365722240 354263 321034 338471 -173045
832782735383935912 353864 320583 338513 -173037
832782735402148992 353335 320035 338463 -173114
832782735420362112 352893 319678 338495 -173039
832782735438575232 352709 319435 338487 -173054
832782735456788480 352702 319400 338494 -173027
832782735475001600 352802 319517 338523 -173024
832782735493214720 353130 319856 338506 -173079
832782735511427840 353345 320079 338497 -173056
832782735529640960 353491 320144 338466 -173054
832782735547854080 353557 320276 338451 -173053
832782735566067328 353557 320249 338481 -173092
832782735584280448 353683 320388 338524 -173009
832782735602493568 353815 320484 338533 -173063
832782735620706688 354033 320716 338443 -173080
832782735638919808 354310 321043 338523 -173093
832782735657132928 354511 321272 338440 -173095
832782735675346176 354570 321286 338460 -173078
832782735693559296 354305 321105 338514 -173088
832782735711772416 353951 320652 338511 -173057
832782735729985536 353473 320198 338472 -173111
832782735748198656 353070 319772 338475 -173086
832782735766411776 352784 319437 338476 -173047
832782735784625024 352676 319369 338485 -173097
832782735802838144 352724 319447 338522 -173064
832782735821051264 352983 319697 338502 -173039
832782735839264384 353168 319866 338485 -173017
832782735857477504 353392 320136 338528 -173085
832782735875690752 353486 320181 338475 -173090
832782735893903872 353523 320231 338413 -173095
832782735912116992 353646 320308 338505 -173121
832782735930330112 353711 320391 338468 -173115
832782735948543232 353887 320573 338420 -173097
832782735966756352 354207 320934 338488 -173041
832782735984969600 354487 321144 338498 -173095
832782736003182720 354741 321470 338461 -173150
832782736021395840 354512 321248 338516 -173107
832782736039608960 354129 320833 338508 -173110
832782736057822080 353648 320336 338476 -173129
832782736076035200 353189 319825 338476 -173126
832782736094248448 352791 319534 338454 -173092
832782736112461568 352575 319348 338449 -173146
832782736130674688 352677 319384 338475 -173116
832782736148887892 352883 319585 338541 -173035
832782736167100800 353088 319805 338508 -173123
832782736185313664 353306 319977 338453 -173131
832782736203526528 353451 320127 338491 -173057
832782736221739520 353567 320201 338462 -173092
832782736239952384 353557 320320 338495 -173080
832782736258165248 353701 320338 338523 -173085
832782736276378112 353885 320570 338525 -173094
832782736294590976 354130 320843 338544 -173078
832782736312803968 354386 321142 338525 -173054
832782736331016832 354539 321308 338500 -173042
832782736349229696 354501 321245 338559 -173099
832782736367442560 354202 320943 338514 -173079
832782736385655424 353720 320474 338482 -173064
832782736403868288 353336 320085 338476 -173093
832782736422081280 352894 319660 338424 -173104
832782736440294144 352667 319442 338496 -173091
832782736458507008 352607 319372 338509 -173076
832782736476719872 352748 319457 338460 -173086
832782736494932736 353008 319759 338489 -173094
832782736513145728 353394 320072 338517 -173037
832782736531358592 353471 320167 338504 -173115
832782736549571456 353565 320307 338496 -173078
832782736567784320 353629 320337 338529 -173077
832782736585997184 353646 320345 338505 -173146
832782736604210176 353839 320493 338510 -173108
832782736622423040 354024 320759 338432 -173088
832782736640635904 354305 321057 338521 -173079
832782736658848768 354487 321232 338474 -173073
832782736677061632 354568 321240 338505 -173038
832782736695274496 354313 321048 338488 -173103
832782736713487488 353891 320629 338507 -173073
832782736731700352 353411 320144 338495 -173021
832782736749913216 353046 319754 338524 -173000
832782736768126080 352737 319440 338498 -173033
