TIMESTAMP PPG0 PPG1 PPG2 AMBIENT
832782427916646784 343613 315999 338641 -173104
832782427934828544 343707 316076 338708 -173067
832782427953010432 343621 316019 338747 -173099
832782427971192192 343684 316072 338700 -173068
832782427989374080 343682 316061 338711 -173043
832782428007555840 343726 316082 338675 -173122
832782428025737728 343673 316015 338713 -173070
832782428043919488 343727 316027 338702 -173040
832782428062101376 343698 316062 338710 -173121
832782428080283136 343702 316080 338731 -173091
832782428098465024 343704 316061 338693 -173079
832782428116646784 343710 316114 338695 -173119
832782428134828544 343667 316045 338654 -173120
832782428153010432 343689 316053 338678 -173111
832782428171192192 343722 316121 338703 -173060
832782428189374080 343785 316162 338724 -173006
832782428207555840 343728 316073 338686 -173058
832782428225737728 343700 316153 338742 -173086
832782428243919488 343743 316123 338710 -173038
832782428262101376 343673 316083 338715 -173081
832782428280283136 343754 316085 338741 -173064
832782428298465024 343739 316065 338691 -173086
832782428316646784 343743 316080 338686 -173092
832782428334828544 343726 316072 338694 -173087
832782428353010432 343683 316148 338729 -173070
832782428371192192 343672 316061 338730 -173090
832782428389374080 343727 316090 338772 -173062
832782428407555840 343684 316061 338658 -173075
832782428425737728 343717 316033 338693 -173105
832782428443919488 343747 316070 338682 -173100
832782428462101376 343711 316014 338686 -173134
832782428480283136 343750 316124 338742 -173113
832782428498465024 343749 316074 338698 -173087
832782428516646784 343737 316072 338728 -173125
832782428534828544 343766 316060 338763 -173074
832782428553010432 343744 316079 338711 -173092
832782428571192192 343714 316088 338750 -173039
832782428589374080 343658 316017 338716 -173076
832782428607555840 343660 316018 338729 -173093
832782428625737728 343729 316062 338720 -173070
832782428643919488 343727 316053 338699 -173070
832782428662101376 343727 316068 338695 -173090
832782428680283136 343753 316078 338762 -173036
832782428698465024 343714 316045 338703 -173029
832782428716646784 343738 316032 338703 -173117
832782428734828544 343716 316040 338648 -173093
832782428753010432 343776 316083 338690 -173052
832782428771192192 343762 316072 338727 -173021
832782428789374080 343762 316057 338737 -173061
832782428807555840 343720 316059 338734 -173094
832782428825737728 343707 316043 338744 -173116
832782428843919548 343676 316050 338678 -173129
832782428862129792 343714 316022 338660 -173121
832782428880340096 343678 316000 338707 -173139
832782428898550528 343739 316054 338759 -173086
832782428916760832 343734 316012 338708 -173061
832782428934971136 343726 316095 338682 -173095
832782428953181568 343722 316114 338661 -173111
832782428971391872 343730 316078 338708 -173119
832782428989602176 343772 316106 338736 -173108
832782429007812608 343739 316124 338699 -173075
832782429026022912 343727 316062 338717 -173093
832782429044233216 343700 316080 338690 -173111
832782429062443648 343761 316036 338751 -173097
832782429080653952 343733 316101 338772 -173072
832782429098864256 343735 316089 338748 -173092
832782429117074560 343760 316107 338760 -173034
832782429135284992 343756 316145 338746 -173088
832782429153495296 343713 316077 338674 -173117
832782429171705600 343781 316083 338717 -173063
832782429189916032 343713 316016 338724 -173102
832782429208126336 343761 316052 338731 -173088
832782429226336640 343805 316066 338716 -173069
832782429244547072 343751 315990 338696 -173094
832782429262757376 343765 316016 338753 -173073
832782429280967680 343724 316008 338707 -173098
832782429299178112 343729 316068 338707 -173089
832782429317388416 343741 316044 338683 -173061
832782429335598720 343759 316075 338727 -173056
832782429353809152 343822 316077 338789 -173065
832782429372019456 343777 316083 338775 -173065
832782429390229760 343722 316126 338714 -173103
832782429408440192 343729 316089 338753 -173062
832782429426650496 343699 316056 338742 -173061
832782429444860800 343772 316057 338700 -173088
832782429463071232 343767 316126 338768 -173086
832782429481281536 343765 316075 338781 -173117
832782429499491840 343782 316003 338768 -173054
832782429517702272 343760 316050 338716 -173069
832782429535912576 343739 316054 338719 -173110
832782429554122880 343750 316089 338721 -173093
832782429572333312 343713 316048 338674 -173099
832782429590543616 343813 316060 338730 -173064
832782429608753920 343760 316057 338722 -173079
832782429626964224 343746 316090 338704 -173074
832782429645174656 343804 316096 338667 -173054
832782429663384960 343852 316076 338686 -173077
832782429681595264 343748 316091 338708 -173078
832782429699805696 343756 316076 338725 -173097
832782429718016110 343719 316059 338713 -173072
832782429736226176 343701 316074 338742 -173025
832782429754436224 343739 316067 338719 -173055
832782429772646400 343721 316105 338730 -173093
832782429790856448 343755 316039 338716 -173079
832782429809066496 343751 316097 338759 -173107
832782429827276672 343797 316077 338721 -173088
832782429845486720 343809 316088 338714 -173052
832782429863696768 348769 321042 338694 -173080
832782429881906944 350898 323215 338718 -173107
832782429900116992 351899 324243 338793 -173026
832782429918327040 352421 324758 338760 -173064
832782429936537216 352847 325127 338725 -173059
832782429954747264 353288 325562 338699 -173120
832782429972957312 353757 326036 338769 -173085
832782429991167488 354126 326362 338784 -173067
832782430009377536 354072 326362 338724 -173009
832782430027587584 353637 326008 338662 -173043
832782430045797760 352994 325355 338752 -173081
832782430064007808 352263 324534 338726 -173082
832782430082217856 351676 323945 338763 -173063
832782430100428032 351246 323508 338803 -173106
832782430118638080 351209 323455 338830 -173043
832782430136848128 351381 323658 338824 -173012
832782430155058304 351709 323999 338728 -173051
832782430173268352 352088 324390 338725 -173078
832782430191478400 352359 324654 338776 -173091
832782430209688576 352498 324828 338793 -173090
832782430227898624 352651 324982 338773 -173051
832782430246108672 352719 325020 338808 -173117
832782430264318824 352860 325173 338734 -173076
832782430282531200 353201 325465 338746 -173033
832782430300743552 353669 325971 338784 -173045
832782430318955776 353973 326292 338729 -173062
832782430337168128 354158 326468 338766 -173033
832782430355380480 353833 326113 338716 -173052
832782430373592832 353201 325514 338766 -173104
832782430391805056 352496 324845 338729 -173074
832782430410017408 351775 324079 338729 -173100
832782430428229760 351299 323625 338751 -173093
832782430446442112 351150 323423 338707 -173139
832782430464654336 351252 323588 338743 -173086
832782430482866688 351589 323857 338691 -173129
832782430501079040 351971 324318 338736 -173068
832782430519291392 352291 324583 338760 -173109
832782430537503616 352456 324799 338775 -173050
832782430555715968 352550 324881 338798 -173092
832782430573928320 352642 324957 338729 -173081
832782430592140544 352818 325100 338741 -173047
832782430610352896 353084 325382 338699 -173123
832782430628565248 353509 325855 338694 -173079
832782430646777600 353906 326210 338705 -173037
832782430664989824 354122 326458 338754 -173051
832782430683202176 353991 326249 338747 -173064
832782430701414528 353457 325740 338749 -173056
832782430719626880 352753 325070 338755 -173033
832782430737839104 352029 324314 338718 -173039
832782430756051456 351499 323760 338739 -173048
832782430774263808 351163 323512 338816 -173060
832782430792476032 351209 323506 338726 -173075
832782430810688384 351513 323810 338752 -173071
832782430828900736 351858 324164 338752 -173065
832782430847113088 352184 324507 338746 -173093
832782430865325312 352393 324776 338768 -173090
832782430883537664 352539 324878 338771 -173068
832782430901750016 352619 324923 338801 -173040
832782430919962368 352759 325046 338772 -173011
832782430938174576 352977 325310 338746 -173070
832782430956386816 353409 325677 338733 -173097
832782430974599040 353801 326101 338714 -173105
832782430992811136 354166 326471 338736 -173017
832782431011023360 354085 326368 338817 -173051
832782431029235456 353667 326008 338800 -172991
832782431047447680 352985 325325 338772 -173052
832782431065659776 352225 324570 338794 -173060
832782431083872000 351575 323920 338766 -173089
832782431102084096 351261 323566 338769 -173075
832782431120296320 351240 323565 338800 -173070
832782431138508544 351433 323719 338766 -173074
832782431156720640 351819 324080 338775 -173059
832782431174932864 352155 324396 338697 -173077
832782431193144960 352453 324673 338750 -173073
832782431211357184 352568 324823 338750 -173037
832782431229569280 352644 324940 338753 -173114
832782431247781504 352661 324927 338726 -173053
832782431265993728 352886 325181 338753 -173081
832782431284205824 353292 325509 338738 -173105
832782431302418048 353726 325918 338711 -173173
832782431320630144 354101 326318 338728 -173078
832782431338842368 354155 326403 338788 -173088
832782431357054464 353770 326074 338784 -173062
832782431375266688 353240 325471 338777 -173016
832782431393478784 352437 324706 338752 -173098
832782431411691008 351824 324059 338788 -173027
832782431429903232 351317 323583 338721 -173069
832782431448115328 351201 323519 338781 -173026
832782431466327552 351286 323658 338779 -173075
832782431484539648 351758 324119 338715 -173058
832782431502751872 352064 324331 338744 -173056
832782431520963968 352337 324659 338739 -173090
832782431539176192 352504 324762 338758 -173090
832782431557388288 352566 324880 338737 -173103
832782431575600512 352733 324961 338784 -173108
832782431593812608 352822 325103 338762 -173112
832782431612024192 353163 325409 338731 -173114
832782431630235776 353586 325842 338724 -173069
832782431648447488 353986 326239 338759 -173105
832782431666659072 354177 326435 338782 -173048
832782431684870656 353953 326195 338744 -173089
832782431703082240 353457 325707 338731 -173056
832782431721293952 352668 324921 338747 -173106
832782431739505536 351956 324272 338781 -173034
832782431757717120 351439 323700 338735 -173068
832782431775928704 351225 323535 338707 -173009
832782431794140416 351285 323568 338738 -173071
832782431812352000 351566 323863 338687 -173067
832782431830563584 351986 324225 338730 -173107
832782431848775168 352278 324518 338758 -173069
832782431866986880 352456 324724 338732 -173085
832782431885198464 352622 324915 338822 -173106
832782431903410048 352632 324912 338698 -173059
832782431921621632 352789 325030 338758 -173059
832782431939833344 353061 325297 338753 -173043
832782431958044928 353505 325703 338790 -173052
832782431976256512 353889 326185 338781 -173036
832782431994468096 354154 326479 338766 -173055
832782432012679808 354082 326440 338782 -173031
832782432030891392 353589 325952 338820 -173081
832782432049102976 352982 325253 338829 -173030
832782432067314560 352213 324473 338805 -173064
832782432085526272 351642 323929 338781 -173030
832782432103737856 351254 323508 338713 -173092
832782432121949440 351214 323506 338746 -173045
832782432140161024 351477 323824 338704 -173012
832782432158372736 351808 324148 338760 -173076
832782432176584320 352214 324553 338781 -173019
832782432194795904 352420 324751 338806 -173094
832782432213007488 352626 324918 338846 -173053
832782432231219178 352635 324984 338799 -173020
832782432249431424 352780 325004 338784 -173035
832782432267643648 353031 325270 338773 -173024
832782432285855744 353341 325554 338739 -173080
832782432304067968 353709 325999 338749 -173110
832782432322280192 354129 326361 338801 -173105
832782432340492288 354183 326397 338775 -173009
832782432358704512 353756 326076 338753 -173056
832782432376916736 353155 325428 338789 -173026
832782432395128832 352417 324663 338755 -173037
832782432413341056 351728 324022 338758 -173099
832782432431553280 351353 323641 338743 -173000
832782432449765504 351218 323507 338738 -172987
832782432467977600 351398 323616 338802 -173013
832782432486189824 351745 323939 338803 -173060
832782432504402048 352069 324350 338763 -173102
832782432522614144 352355 324624 338756 -173111
832782432540826368 352543 324754 338739 -173139
832782432559038592 352598 324864 338721 -173095
832782432577250688 352688 324959 338744 -173077
832782432595462912 352847 325144 338771 -173097
832782432613675136 353238 325468 338802 -173051
832782432631887232 353693 325922 338815 -173062
832782432650099456 354086 326331 338799 -173036
832782432668311680 354193 326490 338794 -173094
832782432686523776 353954 326220 338771 -173086
832782432704736000 353388 325665 338781 -173040
832782432722948224 352651 324980 338744 -173056
832782432741160320 351936 324274 338734 -173063
832782432759372544 351424 323784 338778 -173047
832782432777584768 351209 323532 338743 -173110
832782432795796864 351253 323602 338806 -173087
832782432814009088 351592 323890 338773 -173036
832782432832221312 352001 324324 338769 -173068
832782432850433536 352338 324615 338748 -173048
832782432868645596 352512 324760 338758 -173062
832782432886856832 352613 324961 338813 -173002
832782432905068032 352651 324922 338735 -173086
832782432923279232 352846 325125 338712 -173072
832782432941490560 353097 325428 338793 -173071
832782432959701760 353520 325842 338821 -173081
832782432977912960 353985 326255 338804 -173041
832782432996124160 354226 326497 338770 -173091
832782433014335360 354118 326355 338763 -173093
832782433032546688 353535 325880 338763 -173112
832782433050757888 352860 325148 338780 -173050
832782433068969088 352147 324454 338766 -173028
832782433087180288 351621 323829 338803 -173077
832782433105391488 351254 323518 338752 -173085
832782433123602688 351229 323508 338731 -173116
832782433141814016 351425 323707 338743 -173080
832782433160025216 351865 324125 338755 -173005
832782433178236416 352142 324483 338763 -173053
832782433196447616 352438 324713 338762 -173043
832782433214658816 352580 324913 338747 -173065
832782433232870144 352701 324999 338784 -173075
832782433251081344 352775 325037 338745 -173085
832782433269292544 353002 325267 338750 -173078
832782433287503744 353427 325659 338767 -173093
832782433305714944 353809 326125 338804 -173085
832782433323926272 354189 326480 338797 -173070
832782433342137472 354118 326399 338763 -173054
832782433360348672 353795 326078 338787 -173027
832782433378559872 353060 325398 338717 -173030
832782433396771072 352357 324606 338746 -173044
832782433414982272 351695 323996 338745 -173024
832782433433193600 351252 323570 338741 -173078
832782433451404800 351159 323550 338763 -173077
832782433469616000 351422 323695 338749 -173047
832782433487827200 351769 324076 338783 -173023
832782433506038440 352144 324384 338726 -173092
832782433524249856 352423 324720 338834 -173080
832782433542461312 352530 324863 338800 -173077
832782433560672768 352628 324905 338742 -173140
832782433578884224 352760 325066 338824 -173071
832782433597095680 352954 325243 338727 -173059
832782433615307008 353305 325582 338758 -173067
832782433633518464 353736 326031 338787 -173036
832782433651729920 354096 326365 338824 -173087
832782433669941376 354192 326510 338787 -173029
832782433688152832 353916 326194 338838 -173080
832782433706364288 353375 325633 338785 -173029
832782433724575744 352615 324890 338748 -173105
832782433742787200 351941 324231 338778 -173041
832782433760998656 351425 323641 338741 -173074
832782433779209984 351241 323477 338742 -173060
832782433797421440 351312 323610 338715 -173079
832782433815632896 351720 323954 338799 -173019
832782433833844352 352042 324211 338751 -173046
832782433852055808 352296 324623 338735 -173029
832782433870267264 352534 324828 338822 -173025
832782433888478720 352630 324919 338812 -173038
832782433906690176 352722 324925 338779 -173039
832782433924901632 352853 325077 338776 -173038
832782433943113088 353156 325360 338776 -173030
832782433961324416 353567 325810 338754 -173023
832782433979535872 354018 326249 338798 -173027
832782433997747328 354168 326460 338779 -173097
832782434015958784 354092 326389 338871 -173021
832782434034170240 353543 325826 338794 -173026
832782434052381696 352881 325132 338814 -173004
832782434070593152 352106 324397 338819 -173055
832782434088804608 351539 323824 338816 -173014
832782434107016064 351278 323531 338825 -173062
832782434125227392 351282 323562 338765 -173088
832782434143438918 351551 323874 338786 -173028
832782434161650560 351920 324162 338805 -173080
832782434179862144 352218 324523 338756 -173124
832782434198073856 352566 324745 338751 -173086
832782434216285440 352648 324912 338790 -173097
832782434234497024 352720 324985 338810 -172968
832782434252708608 352814 325035 338760 -173033
832782434270920320 353052 325286 338822 -173073
832782434289131904 353459 325676 338824 -173068
832782434307343488 353935 326137 338783 -173038
832782434325555072 354245 326499 338799 -173087
832782434343766784 354170 326440 338803 -173044
832782434361978368 353733 326013 338783 -173085
832782434380189952 353072 325360 338832 -173045
832782434398401536 352278 324589 338784 -173081
832782434416613248 351681 323966 338811 -173103
832782434434824832 351329 323612 338786 -173040
832782434453036416 351262 323499 338804 -173124
832782434471248000 351436 323735 338820 -173073
832782434489459712 351823 324141 338739 -173038
832782434507671296 352213 324440 338800 -173059
832782434525882880 352474 324734 338829 -173045
832782434544094464 352576 324876 338838 -173045
832782434562306176 352695 324969 338848 -173035
832782434580517760 352744 325030 338839 -173042
832782434598729344 352938 325276 338777 -173048
832782434616940928 353274 325589 338804 -172995
832782434635152640 353736 326016 338764 -173055
832782434653364224 354160 326324 338783 -173054
832782434671575808 354204 326388 338800 -173076
832782434689787392 353877 326153 338787 -173022
832782434707999104 353280 325566 338830 -173033
832782434726210688 352529 324847 338773 -173017
832782434744422272 351888 324133 338816 -173074
832782434762633856 351374 323688 338793 -173100
832782434780845568 351257 323588 338765 -173096
832782434799057152 351362 323652 338807 -173112
832782434817268730 351722 324021 338752 -173098
832782434835480320 352108 324397 338789 -173059
832782434853691904 352409 324701 338855 -173007
832782434871903616 352619 324880 338803 -173059
832782434890115200 352600 324882 338779 -173063
832782434908326784 352786 324973 338813 -173124
832782434926538368 352924 325163 338822 -173053
832782434944750080 353231 325495 338842 -173073
832782434962961664 353698 325925 338853 -173093
832782434981173248 354126 326296 338823 -173095
832782434999384832 354281 326556 338855 -173033
832782435017596544 354081 326536 338864 -173052
832782435035808128 353511 325874 338789 -173053
832782435054019712 352890 325170 338851 -173031
832782435072231296 352175 324405 338815 -173089
832782435090443008 351663 323924 338866 -173046
832782435108654592 351303 323566 338827 -173082
832782435126866176 351429 323600 338841 -173065
832782435145077760 351671 323920 338853 -173018
832782435163289472 352064 324267 338820 -173039
832782435181501056 352427 324642 338885 -173016
832782435199712640 352600 324763 338802 -173020
832782435217924224 352699 324928 338864 -173025
832782435236135936 352764 324987 338861 -173030
832782435254347520 352917 325157 338872 -173034
832782435272559104 353190 325402 338844 -173056
832782435290770688 353543 325740 338795 -173072
832782435308982400 353937 326198 338823 -173017
832782435327193984 354238 326442 338782 -173027
832782435345405568 354162 326425 338828 -173068
832782435363617152 353695 326019 338787 -173050
832782435381828864 353020 325309 338772 -173024
832782435400040448 352279 324607 338765 -173056
832782435418252032 351693 323975 338798 -173105
832782435436463616 351347 323663 338815 -173016
832782435454675328 351269 323574 338823 -173037
832782435472886912 351517 323867 338820 -173012
832782435491098532 351883 324206 338844 -173076
832782435509309568 352228 324489 338829 -173078
832782435527520640 352634 324924 338799 -173014
832782435545731712 352733 324970 338841 -173070
832782435563942912 352673 324994 338767 -173054
832782435582153984 352790 325078 338786 -173038
832782435600365056 353085 325372 338871 -173070
832782435618576128 353358 325635 338844 -173046
832782435636787200 353799 326120 338847 -173046
832782435654998272 354143 326477 338859 -173051
832782435673209472 354147 326544 338855 -173017
832782435691420544 353842 326209 338800 -173047
832782435709631616 353207 325550 338798 -173035
832782435727842688 352522 324852 338794 -173024
832782435746053760 351825 324167 338844 -173012
832782435764264832 351456 323732 338790 -173024
832782435782476032 351303 323574 338798 -173070
832782435800687104 351517 323770 338794 -173042
832782435818898176 351818 324076 338773 -173063
832782435837109248 352190 324467 338820 -173033
832782435855320320 352422 324718 338813 -173063
832782435873531392 352644 324951 338900 -173054
832782435891742592 352703 324943 338830 -173056
832782435909953664 352779 324998 338780 -173058
832782435928164736 352986 325213 338800 -173012
832782435946375808 353318 325530 338837 -173033
832782435964586880 353747 325914 338778 -173037
832782435982797952 354092 326388 338868 -173051
832782436001009152 354279 326550 338837 -173047
832782436019220224 354104 326292 338820 -173042
832782436037431296 353645 325865 338831 -173036
832782436055642368 352900 325083 338861 -173053
832782436073853440 352120 324335 338845 -173033
832782436092064512 351576 323814 338838 -173029
832782436110275712 351359 323564 338872 -173086
832782436128486800 351407 323594 338828 -173073
832782436146697728 351723 323977 338794 -173022
832782436164908672 352070 324279 338832 -173045
832782436183119616 352347 324567 338768 -173058
832782436201330560 352600 324884 338835 -173017
832782436219541504 352681 324938 338838 -173060
832782436237752448 352758 325014 338810 -173075
832782436255963392 352872 325094 338823 -173075
832782436274174336 353169 325434 338835 -173025
832782436292385280 353611 325877 338873 -173042
832782436310596224 353978 326175 338850 -173048
832782436328807168 354272 326501 338819 -173072
832782436347018112 354138 326412 338851 -173053
832782436365228928 353680 325983 338802 -173112
832782436383439872 352941 325212 338771 -173081
832782436401650816 352266 324562 338857 -173056
832782436419861760 351625 323920 338836 -173115
832782436438072704 351341 323586 338813 -173074
832782436456283648 351383 323621 338881 -173022
832782436474494592 351635 323827 338849 -173023
832782436492705536 351961 324239 338795 -173073
832782436510916480 352308 324582 338834 -172999
832782436529127424 352568 324780 338807 -173012
832782436547338368 352807 325032 338819 -173008
832782436565549312 352760 325036 338742 -173057
832782436583760256 352873 325102 338802 -173027
832782436601971200 353081 325332 338765 -173001
832782436620182144 353559 325723 338881 -172963
832782436638393088 353922 326152 338859 -173002
832782436656604032 354210 326488 338803 -173021
832782436674814976 354304 326516 338867 -173029
832782436693025920 353905 326129 338849 -173068
832782436711236864 353201 325503 338858 -173052
832782436729447808 352491 324729 338811 -173047
832782436747658752 351835 324108 338891 -173022
832782436765869696 351448 323686 338859 -173009
832782436784080582 351345 323562 338796 -172999
832782436802291584 351564 323837 338919 -172965
832782436820502528 351856 324122 338793 -173021
832782436838713472 352212 324424 338763 -173058
832782436856924416 352457 324770 338808 -173071
832782436875135360 352590 324901 338781 -173057
832782436893346304 352734 325013 338848 -173031
832782436911557248 352863 325076 338920 -173020
832782436929768192 353074 325294 338930 -173009
832782436947979136 353373 325583 338870 -173009
832782436966190080 353802 326015 338853 -173014
832782436984401024 354186 326374 338859 -173044
832782437002611968 354315 326566 338854 -172977
832782437020822784 354088 326306 338909 -172976
832782437039033728 353487 325759 338875 -172993
832782437057244672 352769 325008 338846 -173004
832782437075455616 352011 324267 338783 -173070
832782437093666560 351521 323792 338836 -173001
832782437111877504 351370 323585 338852 -172986
832782437130088448 351493 323728 338853 -172987
832782437148299392 351766 324008 338818 -172999
832782437166510336 352107 324446 338835 -173001
832782437184721280 352404 324716 338858 -173071
832782437202932224 352692 324904 338855 -172977
832782437221143168 352741 324959 338828 -172983
832782437239354112 352802 325031 338829 -173030
832782437257565056 353043 325228 338898 -172984
832782437275776000 353232 325512 338846 -173027
832782437293986944 353683 325879 338859 -173035
832782437312197888 354119 326299 338895 -173028
832782437330408832 354337 326547 338863 -173036
832782437348619776 354156 326378 338882 -173076
832782437366830720 353683 325938 338881 -173037
832782437385041664 353041 325257 338935 -172999
832782437403252608 352266 324523 338929 -173076
832782437421463552 351627 323894 338832 -173082
832782437439674364 351380 323631 338850 -173029
832782437457885312 351402 323670 338899 -172984
832782437476096256 351555 323881 338799 -173018
832782437494307200 351989 324245 338824 -173009
832782437512518144 352430 324640 338854 -172990
832782437530729088 352665 324908 338875 -172980
832782437548940032 352740 324978 338882 -173035
832782437567150976 352739 325032 338856 -173037
832782437585361920 352862 325114 338784 -173095
832782437603572864 353136 325426 338812 -173038
832782437621783808 353514 325761 338827 -173064
832782437639994752 353951 326206 338825 -173034
832782437658205696 354303 326557 338919 -173044
832782437676416512 354249 326520 338835 -173002
832782437694627456 353867 326095 338850 -173034
832782437712838400 353168 325406 338811 -173076
832782437731049344 352415 324716 338882 -173029
832782437749260288 351803 324062 338832 -173004
832782437767471232 351381 323713 338855 -173018
832782437785682176 351336 323643 338940 -172971
832782437803893120 351542 323799 338902 -173003
832782437822104064 351918 324153 338872 -173036
832782437840315008 352259 324614 338866 -173016
832782437858525952 352511 324750 338875 -173034
832782437876736896 352678 324928 338810 -173019
832782437894947840 352721 325041 338853 -173007
832782437913158784 352820 325088 338845 -173040
832782437931369728 353070 325299 338827 -173031
832782437949580672 353416 325673 338862 -172994
832782437967791616 353852 326087 338873 -173012
832782437986002560 354212 326490 338857 -173016
832782438004213504 354310 326527 338865 -173008
832782438022424448 354013 326218 338836 -173010
832782438040635392 353416 325647 338884 -173047
832782438058846336 352655 324909 338829 -173034
832782438077057280 351975 324189 338817 -173018
832782438095268146 351606 323797 338875 -173000
832782438113479552 351374 323596 338854 -172973
832782438131691008 351462 323789 338855 -173022
832782438149902464 351785 324027 338818 -173038
832782438168113920 352129 324428 338879 -173025
832782438186325376 352443 324741 338850 -173000
832782438204536832 352603 324948 338833 -173028
832782438222748288 352730 325008 338802 -173021
832782438240959616 352835 325061 338871 -173010
832782438259171072 352957 325234 338845 -173047
832782438277382528 353241 325496 338787 -173094
832782438295593984 353763 325950 338849 -173093
832782438313805440 354181 326372 338835 -173058
832782438332016896 354343 326588 338857 -173041
832782438350228352 354144 326410 338863 -173030
832782438368439808 353648 325863 338897 -173013
832782438386651264 352927 325126 338898 -173025
832782438404862720 352178 324413 338842 -172999
832782438423074176 351603 323878 338807 -173078
832782438441285632 351427 323675 338876 -173047
832782438459497088 351445 323665 338862 -173039
832782438477708544 351656 323872 338895 -173059
832782438495919872 352009 324308 338867 -172980
832782438514131328 352368 324598 338851 -173039
832782438532342784 352670 324862 338839 -173026
832782438550554240 352743 324951 338876 -173037
832782438568765696 352846 325072 338887 -172946
832782438586977152 352920 325165 338837 -172975
832782438605188608 353167 325425 338866 -172970
832782438623400064 353541 325771 338859 -173029
832782438641611520 354033 326237 338895 -172969
832782438659822976 354283 326525 338891 -173002
832782438678034432 354241 326452 338898 -173011
832782438696245888 353781 326005 338858 -173068
832782438714457344 353128 325343 338829 -173022
832782438732668800 352420 324674 338880 -172987
832782438750880230 351749 324020 338832 -173060
832782438769092096 351396 323696 338890 -173070
832782438787303936 351388 323601 338868 -173013
832782438805515648 351618 323843 338876 -173016
832782438823727488 351908 324161 338847 -173058
832782438841939328 352332 324535 338805 -173024
832782438860151040 352542 324806 338830 -173043
832782438878362880 352694 324956 338850 -173023
832782438896574720 352763 325007 338872 -172987
832782438914786432 352864 325161 338899 -173046
832782438932998272 353149 325354 338929 -173033
832782438951210112 353421 325633 338913 -173074
832782438969421824 353951 326120 338940 -173014
832782438987633664 354190 326439 338849 -173027
832782439005845504 354345 326559 338917 -173007
832782439024057216 353975 326280 338893 -172978
832782439042269056 353405 325630 338872 -173014
832782439060480896 352639 324917 338901 -173023
832782439078692608 351912 324168 338813 -173039
832782439096904448 351490 323774 338884 -173038
832782439115116160 351365 323638 338829 -172993
832782439133328000 351450 323728 338886 -173004
832782439151539840 351784 324087 338834 -173034
832782439169751552 352200 324520 338861 -173031
832782439187963392 352479 324819 338890 -173020
832782439206175232 352657 324878 338896 -173041
832782439224386944 352718 324946 338853 -173027
832782439242598784 352777 325070 338859 -173041
832782439260810624 353015 325271 338895 -172986
832782439279022336 353297 325569 338866 -173006
832782439297234176 353793 326018 338845 -173034
832782439315446016 354167 326458 338859 -172986
832782439333657728 354331 326522 338883 -172978
832782439351869568 354103 326391 338910 -173027
832782439370081296 353592 325901 338941 -173008
832782439388291840 352870 325181 338869 -173044
832782439406502400 352172 324452 338905 -173001
832782439424712832 351635 323859 338863 -173010
832782439442923392 351422 323643 338879 -173041
832782439461133952 351476 323698 338856 -173021
832782439479344512 351726 323974 338868 -173038
832782439497554944 352196 324318 338870 -173023
832782439515765504 352436 324696 338835 -173051
832782439533976064 352660 324879 338821 -173016
832782439552186624 352743 324928 338811 -173033
832782439570397056 352820 324980 338799 -173028
832782439588607616 353014 325282 338908 -173012
832782439606818176 353230 325482 338910 -173028
832782439625028736 353664 325838 338873 -173036
832782439643239168 354067 326303 338904 -173036
832782439661449728 354339 326566 338913 -173038
832782439679660288 354249 326410 338885 -173070
832782439697870848 353817 325946 338881 -173011
832782439716081280 353112 325351 338858 -173007
832782439734291840 352383 324654 338837 -173035
832782439752502400 351768 323996 338846 -173053
832782439770712960 351453 323729 338885 -173007
832782439788923392 351422 323658 338881 -173027
832782439807133952 351626 323969 338888 -173034
832782439825344512 352025 324315 338889 -173005
832782439843554944 352369 324651 338869 -173013
832782439861765504 352566 324824 338830 -173048
832782439879976064 352727 324968 338895 -173051
832782439898186624 352770 325047 338850 -173018
832782439916397056 352858 325202 338864 -173040
832782439934607616 353125 325352 338855 -173025
832782439952818176 353485 325721 338845 -172989
832782439971028736 353895 326159 338915 -173001
832782439989239168 354306 326550 338906 -173022
832782440007449728 354308 326551 338881 -173027
832782440025659776 353969 326255 338880 -173027
832782440043869824 353317 325587 338861 -172987
832782440062080000 352556 324874 338932 -173022
832782440080290048 351874 324184 338930 -172999
832782440098500096 351512 323746 338867 -173056
832782440116710272 351494 323665 338908 -173014
832782440134920320 351529 323755 338885 -173076
832782440153130368 351874 324102 338858 -173001
832782440171340544 352319 324496 338886 -173001
832782440189550592 352591 324821 338852 -173029
832782440207760640 352770 324974 338854 -173064
832782440225970816 352767 324973 338862 -173046
832782440244180864 352824 325072 338913 -173072
832782440262390912 353099 325337 338917 -173023
832782440280601088 353426 325623 338916 -172982
832782440298811136 353801 326053 338864 -173026
832782440317021184 354219 326453 338867 -173054
832782440335231360 354300 326590 338933 -173031
832782440353441408 354123 326356 338889 -172993
832782440371651456 353597 325755 338926 -173041
832782440389861632 352758 325032 338905 -173060
832782440408071680 352095 324422 338958 -173031
832782440426281728 351566 323796 338854 -173018
832782440444491904 351361 323634 338862 -173044
832782440462701952 351464 323772 338903 -173025
832782440480912000 351760 323934 338821 -173067
832782440499122176 352142 324388 338823 -173027
832782440517332224 352550 324794 338867 -173070
832782440535542272 352696 324966 338840 -173075
832782440553752448 352747 325030 338855 -173034
832782440571962496 352884 325132 338916 -173016
832782440590172544 352968 325249 338919 -173045
832782440608382720 353237 325572 338887 -173030
832782440626592768 353651 325924 338895 -173011
832782440644802902 354043 326377 338879 -173053
832782440663014528 354325 326555 338886 -173037
832782440681226112 354180 326471 338872 -173059
832782440699437824 353680 325937 338893 -173061
832782440717649408 353047 325289 338870 -173102
832782440735860992 352275 324551 338867 -173078
832782440754072576 351677 323900 338859 -173050
832782440772284288 351376 323629 338924 -173043
832782440790495872 351386 323591 338874 -173063
832782440808707456 351660 323900 338848 -173104
832782440826919040 352043 324276 338902 -173058
832782440845130752 352391 324653 338926 -173105
832782440863342336 352614 324916 338846 -173054
832782440881553920 352667 324980 338856 -173071
832782440899765504 352797 325072 338865 -173040
832782440917977216 352967 325197 338883 -173060
832782440936188800 353149 325437 338866 -173051
832782440954400384 353591 325822 338920 -173000
832782440972611968 353975 326212 338892 -173087
832782440990823680 354279 326542 338859 -173088
832782441009035264 354270 326589 338891 -173045
832782441027246848 354056 326287 338909 -173051
832782441045458432 353322 325548 338914 -173061
832782441063670144 352557 324823 338918 -172996
832782441081881728 351934 324197 338913 -173030
832782441100093312 351474 323773 338909 -173038
832782441118304896 351355 323676 338934 -172974
832782441136516608 351561 323787 338891 -173018
832782441154728192 351914 324163 338883 -173025
832782441172939776 352276 324509 338948 -173020
832782441191151360 352548 324768 338870 -173046
832782441209363072 352702 324967 338882 -173047
832782441227574656 352855 325071 338882 -172991
832782441245786240 352839 325164 338888 -173097
832782441263997824 353031 325360 338878 -173042
832782441282209472 353455 325639 338874 -173002
832782441300421120 353826 326062 338820 -173055
832782441318632704 354215 326461 338867 -172977
832782441336844416 354328 326503 338859 -173008
832782441355056000 354075 326317 338916 -172974
832782441373267584 353497 325728 338887 -173063
832782441391479168 352746 324997 338867 -173005
832782441409690880 352095 324334 338864 -173040
832782441427902464 351462 323814 338838 -173063
832782441446114048 351398 323701 338906 -173027
832782441464325632 351475 323814 338884 -173076
832782441482537344 351811 324102 338917 -173020
832782441500748928 352175 324433 338900 -173044
832782441518960512 352494 324723 338885 -173053
832782441537172096 352774 325060 338844 -173046
832782441555383808 352815 325060 338899 -173071
832782441573595392 352793 325092 338862 -173041
832782441591806976 352981 325223 338910 -173062
832782441610018560 353298 325543 338887 -173060
832782441628230272 353722 326016 338937 -173052
832782441646441856 354054 326374 338900 -173058
832782441664653440 354289 326656 338906 -173045
832782441682865024 354209 326493 338885 -173003
832782441701076736 353691 325980 338862 -173073
832782441719288320 353020 325205 338858 -173086
832782441737499904 352275 324525 338890 -173095
832782441755711488 351654 323979 338789 -173070
832782441773923200 351433 323700 338869 -173037
832782441792134784 351449 323646 338883 -173061
832782441810346368 351754 323963 338872 -173045
832782441828557952 352041 324295 338878 -173029
832782441846769664 352376 324692 338879 -173051
832782441864981248 352615 324922 338891 -173055
832782441883192832 352829 325025 338904 -173050
832782441901404416 352827 325045 338895 -173091
832782441919616052 352946 325230 338883 -173046
832782441937827584 353197 325472 338857 -173068
832782441956039168 353543 325888 338867 -173035
832782441974250880 353988 326325 338913 -173016
832782441992462464 354488 326724 338918 -173031
832782442010674048 354367 326613 338901 -173012
832782442028885632 353914 326164 338892 -173051
832782442047097344 353273 325494 338883 -173073
832782442065308928 352471 324775 338848 -173064
832782442083520512 351916 324126 338922 -173068
832782442101732096 351502 323706 338855 -173030
832782442119943808 351458 323667 338907 -172997
832782442138155392 351650 323869 338883 -173027
832782442156366976 351959 324199 338876 -173035
832782442174578560 352380 324638 338930 -173039
832782442192790272 352534 324792 338892 -173060
832782442211001856 352741 324986 338943 -173027
832782442229213440 352763 325040 338901 -173042
832782442247425024 352961 325171 338913 -173016
832782442265636736 353154 325331 338914 -173021
832782442283848320 353513 325707 338975 -173017
832782442302059904 353835 326105 338918 -173057
832782442320271488 354222 326515 338853 -173133
832782442338483200 354363 326571 338873 -173061
832782442356694784 354056 326296 338940 -173054
832782442374906368 353398 325629 338874 -173006
832782442393117952 352661 324911 338874 -173068
832782442411329664 351957 324276 338841 -173017
832782442429541248 351524 323848 338880 -173011
832782442447752832 351357 323616 338884 -173035
832782442465964416 351521 323782 338920 -173043
832782442484176128 351834 324108 338907 -172979
832782442502387712 352416 324615 338950 -172987
832782442520599296 352642 324858 338952 -173021
832782442538810880 352734 325007 338940 -173050
832782442557022592 352771 325009 338909 -173053
832782442575234248 352877 325071 338918 -172977
832782442593445888 353061 325243 338907 -173053
832782442611657472 353309 325607 338855 -173086
832782442629869184 353795 326053 338906 -173008
832782442648080768 354195 326453 338959 -173007
832782442666292352 354343 326649 338921 -173028
832782442684503936 354214 326517 339034 -173092
832782442702715648 353650 325891 338912 -173059
832782442720927232 352923 325173 338879 -173021
832782442739138816 352241 324462 338886 -173042
832782442757350400 351630 323911 338844 -173044
832782442775562112 351455 323630 338834 -173026
832782442793773696 351422 323667 338845 -173062
832782442811985280 351761 323996 338912 -173031
832782442830196864 352094 324382 338897 -172975
832782442848408576 352515 324706 338905 -172976
832782442866620160 352734 324928 338966 -172995
832782442884831744 352780 325025 338892 -172959
832782442903043328 352843 325123 338906 -173013
832782442921255040 352981 325195 338890 -172993
832782442939466624 353232 325512 338888 -173057
832782442957678208 353651 325864 338861 -173028
832782442975889792 354117 326330 338885 -172977
832782442994101504 354450 326636 338900 -173001
832782443012313088 354422 326706 338933 -173021
832782443030524672 353903 326189 338873 -172965
832782443048736256 353163 325412 338890 -173038
832782443066947968 352325 324658 338796 -173077
832782443085159552 351778 324044 338879 -173064
832782443103371136 351467 323704 338832 -173085
832782443121582720 351425 323715 338866 -173053
832782443139794432 351705 323957 338869 -173008
832782443158006016 351982 324267 338873 -173087
832782443176217600 352316 324646 338887 -173057
832782443194429184 352594 324789 338851 -173039
832782443212640896 352769 325040 338862 -173044
832782443230852444 352870 325109 338903 -173025
832782443249064064 352931 325154 338878 -173055
832782443267275648 353176 325387 338904 -173056
832782443285487360 353538 325810 338910 -173010
832782443303698944 353958 326189 338889 -173000
832782443321910528 354314 326533 338939 -172965
832782443340122112 354316 326568 338895 -173005
832782443358333824 354019 326270 338903 -173073
832782443376545408 353399 325655 338871 -173068
832782443394756992 352694 324929 338923 -173037
832782443412968576 352002 324246 338958 -173024
832782443431180288 351456 323787 338918 -173064
832782443449391872 351392 323652 338967 -173045
832782443467603456 351569 323785 338899 -173028
832782443485815040 351920 324127 338937 -173030
832782443504026752 352281 324528 338901 -173035
832782443522238336 352746 324953 338909 -172996
832782443540449920 352811 324995 338844 -173042
832782443558661504 352847 325041 338882 -173019
832782443576873216 352908 325108 338889 -173031
832782443595084800 353139 325318 338906 -173016
832782443613296384 353419 325659 338931 -173075
832782443631507968 353840 326067 338939 -173072
832782443649719680 354278 326502 338937 -173048
832782443667931264 354408 326635 338953 -173047
832782443686142848 354146 326430 338932 -173065
832782443704354432 353545 325839 338923 -173063
832782443722566144 352825 325054 338915 -173081
832782443740777728 352188 324400 338936 -172982
832782443758989312 351676 323883 338942 -172992
832782443777200896 351463 323707 338964 -172988
832782443795412608 351565 323792 338951 -173018
832782443813624192 351868 324083 338922 -172951
832782443831835776 352147 324446 338944 -173018
832782443850047360 352532 324802 338974 -172993
832782443868259014 352720 324982 338930 -173033
832782443886471552 352806 325071 338918 -173014
832782443904684032 352894 325094 338881 -173007
832782443922896512 353040 325240 338913 -173042
832782443941108992 353340 325540 338970 -173012
832782443959321472 353762 325956 338937 -172966
832782443977533952 354134 326367 338947 -172982
832782443995746432 354436 326628 338946 -173013
832782444013958912 354256 326554 338920 -173003
832782444032171520 353944 326154 338896 -173008
832782444050384000 353186 325418 338906 -173000
832782444068596480 352411 324625 338988 -172975
832782444086808960 351856 323987 338931 -173004
832782444105021440 351532 323685 338921 -173027
832782444123233920 351495 323735 338961 -173061
832782444141446400 351767 323997 338937 -173005
832782444159658880 352091 324308 338952 -173027
832782444177871360 352494 324695 338908 -173077
832782444196083840 352668 324905 338915 -173001
832782444214296320 352831 325040 338975 -173016
832782444232508800 352854 325070 338923 -173021
832782444250721280 352998 325211 338975 -173000
832782444268933760 353204 325453 339017 -173039
832782444287146240 353560 325834 338948 -172991
832782444305358848 354032 326309 338977 -173073
832782444323571328 354384 326614 338969 -173036
832782444341783808 354380 326610 338971 -172999
832782444359996288 354010 326240 338952 -173005
832782444378208768 353330 325576 338891 -173050
832782444396421248 352641 324887 338898 -173043
832782444414633728 351962 324175 338850 -173085
832782444432846208 351572 323817 338902 -172991
832782444451058688 351444 323679 338879 -172946
832782444469271168 351647 323818 338935 -173001
832782444487483648 351980 324194 338942 -172953
832782444505696112 352345 324563 338909 -172996
832782444523908096 352547 324823 338914 -173016
832782444542120064 352889 325147 338874 -173038
832782444560332032 352903 325201 338946 -172987
832782444578544000 352940 325187 338939 -173018
832782444596755968 353117 325400 338968 -173042
832782444614967936 353535 325742 338924 -172975
832782444633179776 353902 326066 338934 -173016
832782444651391744 354274 326492 338871 -173054
832782444669603712 354363 326644 338935 -173030
832782444687815680 354106 326358 338981 -173050
832782444706027648 353537 325825 338931 -173011
832782444724239616 352813 325036 338876 -173047
832782444742451584 352096 324375 338907 -173056
832782444760663552 351646 323841 338919 -173004
832782444778875520 351441 323643 338937 -173012
832782444797087488 351517 323768 338882 -173052
832782444815299328 351877 324065 338938 -173045
832782444833511296 352166 324437 338958 -173034
832782444851723264 352472 324777 338909 -173082
832782444869935232 352700 324970 338921 -173026
832782444888147200 352846 325052 338982 -173030
832782444906359168 352866 325154 338938 -173037
832782444924571136 353081 325299 338925 -173046
832782444942783104 353301 325544 338917 -173095
832782444960995072 353769 325994 338898 -173053
832782444979207040 354135 326393 338949 -173077
832782444997418880 354483 326808 338941 -173037
832782445015630848 354259 326521 338872 -173040
832782445033842816 353729 326015 338884 -173069
832782445052054784 353053 325337 338927 -173052
832782445070266752 352296 324557 338916 -173029
832782445088478720 351716 323968 338936 -173073
832782445106690688 351491 323673 338844 -173058
832782445124902656 351420 323659 338841 -173039
832782445143114624 351705 323924 338873 -173060
832782445161326516 352092 324302 338907 -173090
832782445179539456 352398 324618 338924 -173061
832782445197752448 352670 324929 338925 -173043
832782445215965312 352739 324889 338811 -173093
832782445234178304 352812 325051 338875 -173055
832782445252391168 352920 325170 338886 -173074
832782445270604160 353132 325409 338897 -173074
832782445288817024 353590 325872 338902 -173044
832782445307030016 354076 326290 338871 -173123
832782445325243008 354362 326631 338855 -173090
832782445343455872 354308 326539 338913 -173088
832782445361668864 353918 326175 338964 -173075
832782445379881728 353225 325465 338918 -173036
832782445398094720 352454 324762 338919 -173045
832782445416307584 351869 324148 338973 -173047
832782445434520576 351467 323746 338897 -173031
832782445452733440 351387 323682 338910 -173040
832782445470946432 351585 323922 338896 -173018
832782445489159424 352037 324246 338882 -173068
832782445507372288 352552 324756 338919 -173031
832782445525585280 352654 324914 338883 -172989
832782445543798144 352833 325048 338930 -172989
832782445562011136 352853 325094 338907 -173019
832782445580224000 352946 325164 338931 -173019
832782445598436992 353190 325372 338883 -173033
832782445616649984 353530 325766 338896 -173064
832782445634862848 353941 326156 338887 -173062
832782445653075840 354340 326556 338944 -173037
832782445671288704 354366 326607 338953 -172967
832782445689501696 354058 326313 338900 -173034
832782445707714560 353481 325723 338983 -173034
832782445725927552 352773 325006 338939 -173074
832782445744140416 352044 324283 338842 -173075
832782445762353408 351601 323817 338874 -173096
832782445780566400 351493 323699 338986 -173030
832782445798779264 351543 323792 338909 -173007
832782445816992256 351869 324082 338939 -173056
832782445835205156 352223 324465 338869 -173067
832782445853417600 352507 324740 338912 -173041
832782445871630080 352692 324959 338909 -173026
832782445889842560 352836 325041 338883 -173073
832782445908055040 352877 325103 338889 -173033
832782445926267520 353024 325286 338873 -173105
832782445944480000 353343 325580 338872 -173047
832782445962692480 353731 325990 338912 -173070
832782445980904960 354191 326428 338881 -173053
832782445999117568 354367 326670 338936 -173043
832782446017330048 354181 326464 338951 -173043
832782446035542528 353669 325934 338897 -173069
832782446053755008 352951 325218 338896 -173058
832782446071967488 352173 324474 338907 -173076
832782446090179968 351693 323919 338923 -173048
832782446108392448 351464 323703 338898 -173104
832782446126604928 351502 323680 338846 -173132
832782446144817408 351800 323962 338893 -173125
832782446163029888 352104 324364 338893 -173062
832782446181242368 352423 324687 338852 -173090
832782446199454848 352684 324863 338855 -173073
832782446217667328 352781 324999 338890 -173062
832782446235879808 352822 325085 338867 -173116
832782446254092288 353004 325252 338924 -173047
832782446272304896 353213 325508 338864 -173073
832782446290517376 353622 325843 338800 -173107
832782446308729856 354087 326317 338881 -173096
832782446326942336 354362 326640 338905 -173057
832782446345154816 354369 326577 338926 -173028
832782446363367296 353895 326144 338934 -173028
832782446381579776 353181 325441 338954 -173021
832782446399792256 352473 324692 338936 -173061
832782446418004736 351822 324035 338910 -173119
832782446436217216 351460 323707 338885 -173124
832782446454429696 351429 323706 338886 -173148
832782446472642254 351660 323928 338889 -173024
832782446490853248 352081 324298 338907 -173087
832782446509064192 352432 324709 338917 -173034
832782446527275136 352699 324967 338886 -173045
832782446545485952 352793 325053 338924 -173061
832782446563696896 352837 325103 338924 -173072
832782446581907840 352850 325122 338870 -173061
832782446600118784 353160 325376 338941 -173023
832782446618329600 353497 325747 338976 -173030
832782446636540544 353990 326195 339006 -173020
832782446654751488 354373 326503 338897 -173041
832782446672962432 354344 326642 338880 -173047
832782446691173376 354059 326332 338947 -173027
832782446709384192 353432 325676 338942 -172987
832782446727595136 352656 324932 338886 -173029
832782446745806080 351952 324172 338868 -173056
832782446764017024 351543 323820 338873 -173091
832782446782227840 351424 323619 338901 -173054
832782446800438784 351564 323793 338917 -172995
832782446818649728 351923 324180 338940 -173002
832782446836860672 352293 324506 338895 -173023
832782446855071488 352584 324833 338917 -173086
832782446873282432 352745 324991 338927 -173062
832782446891493376 352821 325065 338936 -173030
832782446909704320 352898 325115 338951 -172999
832782446927915264 353143 325378 338955 -173093
832782446946126080 353400 325640 338875 -173068
832782446964337024 353833 326021 338896 -173052
832782446982547968 354243 326435 338905 -173042
832782447000758912 354419 326603 338927 -173025
832782447018969728 354200 326446 338888 -173052
832782447037180672 353720 325985 338866 -173095
832782447055391616 352923 325196 338844 -173065
832782447073602560 352162 324451 338908 -173074
832782447091813504 351671 323942 338955 -173045
832782447110024320 351383 323671 338925 -173018
832782447128235264 351466 323713 338896 -173068
832782447146446114 351769 324016 338895 -173073
832782447164658432 352194 324432 338901 -173045
832782447182870784 352532 324785 338898 -173056
832782447201083136 352738 324959 338858 -173064
832782447219295488 352860 325020 338846 -173093
832782447237507840 352890 325067 338873 -173060
832782447255720192 353052 325262 338900 -173030
832782447273932544 353292 325485 338898 -173053
832782447292144896 353610 325876 338893 -173041
832782447310357248 354048 326315 338863 -173058
832782447328569600 354342 326617 338906 -173086
832782447346781952 354249 326523 338906 -173072
832782447364994304 353829 326074 338904 -173038
832782447383206784 353146 325387 338918 -173060
832782447401419136 352391 324654 338927 -173128
832782447419631488 351789 324091 338938 -173085
832782447437843840 351453 323670 338907 -173113
832782447456056192 351434 323693 338956 -173099
832782447474268544 351745 323951 338935 -173076
832782447492480896 352071 324312 338813 -173117
832782447510693248 352440 324632 338896 -173070
832782447528905600 352661 324841 338908 -173104
832782447547117952 352855 324961 338907 -173052
832782447565330304 352872 325048 338872 -173060
832782447583542656 352923 325150 338855 -173124
832782447601755008 353257 325450 338879 -173044
832782447619967360 353589 325805 338897 -173087
832782447638179712 354068 326204 338878 -173046
832782447656392064 354375 326585 338922 -173052
832782447674604416 354349 326611 338868 -173045
832782447692816768 354005 326174 338872 -173071
832782447711029120 353335 325565 338896 -173042
832782447729241472 352542 324811 338917 -173063
832782447747453824 351974 324167 338873 -173037
832782447765666176 351547 323765 338884 -173069
832782447783878636 351430 323681 338883 -173078
832782447802091008 351621 323880 338930 -173057
832782447820303360 351997 324231 338893 -173096
832782447838515584 352365 324509 338889 -173097
832782447856727936 352651 324847 338942 -173020
832782447874940160 352801 324999 338994 -172993
832782447893152512 352832 325019 338912 -173034
832782447911364736 352961 325149 338906 -172980
832782447929577088 353068 325280 338870 -173001
832782447947789312 353424 325613 338865 -173061
832782447966001664 353820 326143 338858 -173072
832782447984214016 354283 326547 338920 -173035
832782448002426240 354456 326652 338961 -173027
832782448020638592 354178 326403 338948 -173089
832782448038850816 353573 325834 338898 -173080
832782448057063168 352958 325113 338971 -172995
832782448075275392 352142 324337 338844 -173097
832782448093487744 351665 323895 338961 -173034
832782448111699968 351511 323693 338963 -173089
832782448129912320 351541 323783 338920 -173081
832782448148124672 351883 324075 338890 -173102
832782448166336896 352239 324440 338896 -173058
832782448184549248 352550 324777 338906 -173064
832782448202761472 352730 325019 338975 -173044
832782448220973824 352833 325084 338938 -173021
832782448239186048 352875 325055 338899 -173041
832782448257398400 353095 325317 338925 -173020
832782448275610624 353323 325622 338921 -173054
832782448293822976 353783 325999 338927 -173026
832782448312035200 354222 326415 338937 -173060
832782448330247552 354459 326650 338936 -173146
832782448348459904 354263 326477 338929 -173061
832782448366672128 353765 325983 338923 -173060
832782448384884480 353060 325257 338856 -173057
832782448403096704 352353 324537 338900 -173050
832782448421309056 351806 324009 338973 -173057
832782448439521248 351502 323755 338967 -173013
832782448457734912 351500 323698 338907 -173045
832782448475948544 351740 323966 338871 -173046
832782448494162304 352093 324329 338874 -173065
832782448512375936 352628 324807 338963 -173071
832782448530589568 352755 324991 338933 -173057
832782448548803200 352878 325070 338953 -173091
832782448567016960 352896 325058 338868 -173123
832782448585230592 352991 325183 338902 -173069
832782448603444224 353239 325514 338923 -173053
832782448621657856 353598 325835 338863 -173128
832782448639871616 354070 326328 338939 -173068
832782448658085248 354402 326616 338921 -173036
832782448676298880 354396 326644 338910 -173044
832782448694512512 353993 326231 338963 -173011
832782448712726272 353314 325539 338964 -173052
832782448730939904 352559 324726 338920 -173026
832782448749153536 351862 324134 338977 -173092
832782448767367168 351539 323782 338943 -173098
832782448785580928 351548 323686 338921 -173044
832782448803794560 351719 323860 338914 -173086
832782448822008192 352017 324205 338929 -173069
832782448840221952 352352 324579 338943 -172975
832782448858435584 352586 324847 338861 -173063
832782448876649216 352764 325038 338882 -173036
832782448894862848 352916 325156 338953 -173022
832782448913076608 352943 325197 338913 -173067
832782448931290240 353100 325388 338884 -173025
832782448949503872 353554 325769 338913 -173079
832782448967717504 353942 326161 338858 -173092
832782448985931264 354329 326559 338968 -173076
832782449004144896 354447 326637 338959 -173097
832782449022358528 354285 326480 338878 -173060
832782449040572160 353591 325860 338972 -173051
832782449058785920 352811 325072 338924 -173046
832782449076999544 352097 324334 338875 -173099
832782449095212672 351609 323835 338890 -173069
832782449113425792 351407 323683 338919 -173090
832782449131638912 351517 323789 338865 -173097
832782449149852160 351819 324076 338881 -173137
832782449168065280 352245 324471 338893 -173086
832782449186278400 352586 324780 338913 -173067
832782449204491520 352813 325000 338957 -173054
832782449222704640 352831 325093 338909 -173043
832782449240917760 352921 325189 338951 -173073
832782449259131008 353150 325366 338970 -173043
832782449277344128 353387 325618 338917 -173054
832782449295557248 353829 326094 338942 -173017
832782449313770368 354278 326551 338997 -173050
832782449331983488 354459 326707 339003 -173063
832782449350196608 354274 326591 338990 -173043
832782449368409856 353774 326010 338992 -173053
832782449386622976 353067 325293 338924 -173043
832782449404836096 352286 324552 338923 -173054
832782449423049216 351702 323949 338912 -173051
832782449441262336 351471 323714 338878 -173070
832782449459475456 351536 323695 338865 -173058
832782449477688704 351833 324061 338972 -172994
832782449495901824 352189 324422 338931 -173009
832782449514114944 352558 324731 338937 -173061
832782449532328064 352760 324981 338918 -173070
832782449550541184 352895 325049 338888 -173025
832782449568754432 352931 325077 338867 -173048
832782449586967552 353012 325222 338897 -173052
832782449605180672 353267 325489 338947 -173048
832782449623393792 353655 325918 338942 -173007
832782449641606912 354115 326287 338957 -173035
832782449659820032 354450 326743 338965 -173062
832782449678033280 354369 326662 338955 -173036
832782449696246400 353908 326160 338926 -173071
832782449714459520 353272 325488 338895 -173060
832782449732672664 352521 324760 338981 -173028
832782449750884352 351887 324136 338920 -173029
832782449769096064 351497 323815 338941 -173076
832782449787307648 351501 323785 338920 -173043
832782449805519360 351667 323890 338886 -173082
832782449823730944 352034 324244 338870 -173081
832782449841942656 352372 324633 338896 -173080
832782449860154240 352673 324924 338899 -173061
832782449878365952 352788 325066 338912 -173074
832782449896577664 352903 325105 338892 -173055
832782449914789248 352992 325144 338923 -173096
832782449933000960 353191 325388 338912 -173067
832782449951212544 353563 325779 338916 -173100
832782449969424256 353979 326173 338882 -173040
832782449987635840 354526 326749 338936 -173058
832782450005847552 354510 326708 338966 -173065
832782450024059264 354112 326397 338941 -173061
832782450042270848 353501 325769 338973 -173063
832782450060482560 352785 325030 338974 -173016
832782450078694144 352122 324284 338977 -173007
832782450096905856 351602 323884 338985 -173062
832782450115117568 351479 323764 338968 -173091
832782450133329152 351581 323861 338918 -173089
832782450151540864 351894 324180 338961 -173081
832782450169752448 352292 324513 338883 -173047
832782450187964160 352647 324856 338881 -173056
832782450206175744 352833 325014 338935 -173014
832782450224387456 352867 325053 338925 -173052
832782450242599168 352881 325115 338888 -173103
832782450260810752 353115 325307 338964 -173075
832782450279022464 353497 325694 339019 -173010
832782450297234048 353827 326054 338935 -173057
832782450315445760 354242 326452 338934 -173096
832782450333657344 354479 326674 338952 -173040
832782450351869056 354256 326426 338912 -173039
832782450370080768 353667 325877 338880 -173075
832782450388292352 352999 325219 338921 -173028
832782450406504000 352197 324434 338926 -173021
832782450424714624 351672 323901 338963 -173016
832782450442925312 351489 323718 338993 -173001
832782450461136000 351540 323795 338936 -173007
832782450479346816 351852 324042 338953 -173026
832782450497557504 352360 324567 338976 -172977
832782450515768192 352642 324774 338956 -173040
832782450533978880 352818 325003 339012 -173046
832782450552189696 352873 325126 338970 -173007
832782450570400384 352906 325101 338931 -173058
832782450588611072 353093 325237 338882 -173063
832782450606821760 353344 325525 338912 -173024
832782450625032576 353785 325957 338905 -173021
832782450643243264 354154 326446 339039 -173036
832782450661453952 354551 326749 338988 -173000
832782450679664640 354327 326572 338978 -173039
832782450697875456 353920 326186 338993 -172982
832782450716086144 353286 325479 338967 -172967
832782450734296832 352531 324743 338999 -173021
832782450752507520 351960 324089 338964 -173003
832782450770718336 351583 323786 338985 -173054
832782450788929024 351551 323820 339020 -173037
832782450807139712 351769 323996 338972 -173016
832782450825350400 352122 324404 338948 -173078
832782450843561216 352513 324740 338931 -172995
832782450861771904 352738 324990 338970 -173029
832782450879982592 352871 325121 338944 -172988
832782450898193280 352944 325191 339022 -172984
832782450916404096 353045 325222 339034 -172989
832782450934614784 353253 325441 339024 -173013
832782450952825472 353614 325795 338930 -173052
832782450971036160 354083 326237 338924 -173019
832782450989246976 354412 326561 338899 -173027
832782451007457664 354592 326766 338993 -173013
832782451025668446 354137 326403 338972 -173003
832782451043881344 353477 325706 338932 -173008
832782451062094208 352711 324979 338936 -173023
832782451080307200 352024 324346 338947 -172989
832782451098520064 351595 323836 338943 -173047
832782451116733056 351506 323733 338932 -173022
832782451134945920 351633 323961 338991 -173009
832782451153158912 352036 324243 338959 -172986
832782451171371776 352347 324675 338959 -172992
832782451189584768 352632 324867 338940 -173021
832782451207797632 352812 325010 338953 -172979
832782451226010624 352901 325099 338940 -172987
832782451244223488 353003 325184 338878 -173047
832782451262436480 353164 325459 338922 -172951
832782451280649344 353479 325776 338954 -173071
832782451298862336 353952 326161 338920 -173013
832782451317075200 354331 326571 338918 -173038
832782451335288192 354422 326631 338930 -173021
832782451353501056 354241 326517 339017 -172999
832782451371714048 353641 325944 338956 -173027
832782451389926912 352942 325196 338976 -173005
832782451408139776 352251 324481 339011 -172944
832782451426352768 351749 323911 338968 -173021
832782451444565632 351531 323761 338993 -172983
832782451462778624 351611 323807 339012 -172989
832782451480991488 351969 324142 338990 -173077
832782451499204480 352251 324448 338966 -173078
832782451517417344 352700 324970 338998 -173023
832782451535630336 352840 325063 339049 -173039
832782451553843200 352896 325072 338966 -173065
832782451572056192 352971 325140 338975 -172996
832782451590269056 353159 325314 338988 -173006
832782451608482048 353404 325637 338974 -172989
832782451626694912 353856 326045 338973 -173033
832782451644907904 354277 326526 338998 -172993
832782451663120804 354473 326722 338914 -173030
832782451681334528 354346 326513 338895 -173053
832782451699548288 353879 326055 339023 -173020
832782451717762176 353157 325407 338989 -173030
832782451735975936 352423 324652 338978 -173020
832782451754189696 351831 324104 338990 -173062
832782451772403456 351505 323747 338942 -173086
832782451790617344 351550 323797 338975 -173044
832782451808831104 351805 323985 338995 -173009
832782451827044864 352106 324404 338959 -173065
832782451845258752 352467 324720 338966 -173031
832782451863472512 352710 324891 338927 -173050
832782451881686272 352821 325094 338930 -173065
832782451899900032 352903 325204 338977 -173081
832782451918113920 353052 325277 338920 -173039
832782451936327680 353242 325554 338991 -173021
832782451954541440 353677 325849 338965 -173021
832782451972755328 354120 326318 338964 -173002
832782451990969088 354400 326693 338990 -173060
832782452009182848 354376 326646 338958 -173061
832782452027396608 354041 326237 338910 -173027
832782452045610496 353394 325620 338905 -173079
832782452063824256 352593 324826 338882 -173085
832782452082038016 352000 324140 338939 -173098
832782452100251904 351639 323802 338969 -172985
832782452118465664 351510 323745 338941 -172991
832782452136679424 351678 323938 338988 -173014
832782452154893184 352061 324308 338980 -172965
832782452173107072 352410 324687 339010 -173009
832782452191320832 352674 324930 338973 -173001
832782452209534592 352853 325070 338968 -173019
832782452227748480 352941 325174 338976 -173042
832782452245962240 353030 325245 339015 -173035
832782452264176000 353254 325461 338987 -173001
832782452282389760 353576 325766 338961 -173048
832782452300603678 353993 326185 338952 -173080
832782452318816768 354338 326542 338924 -173076
832782452337029888 354491 326655 338889 -173050
832782452355243008 354169 326393 338955 -173044
832782452373456256 353616 325822 338907 -173023
832782452391669376 352916 325084 338959 -173014
832782452409882496 352193 324367 338912 -173038
832782452428095616 351701 323847 338933 -173059
832782452446308736 351525 323709 339033 -173026
832782452464521856 351638 323802 338934 -173029
832782452482735104 351980 324099 338980 -173023
832782452500948224 352300 324505 338986 -173024
832782452519161344 352622 324832 338995 -173057
832782452537374464 352835 325025 338999 -173031
832782452555587584 352882 325097 338929 -173069
832782452573800704 352940 325229 338881 -173052
832782452592013952 353154 325293 338901 -173027
832782452610227072 353445 325627 338991 -173064
832782452628440192 353886 326008 338933 -173044
832782452646653312 354297 326416 338944 -173009
832782452664866432 354532 326727 339011 -173027
832782452683079552 354313 326491 338985 -173031
832782452701292800 353803 325993 338995 -173064
832782452719505920 353123 325316 338936 -173031
832782452737719040 352383 324577 338946 -173014
832782452755932160 351825 323988 339018 -173019
832782452774145280 351529 323701 338994 -173079
832782452792358528 351555 323764 339002 -173044
832782452810571648 351832 324010 338977 -173069
832782452828784768 352189 324400 339016 -173094
832782452846997888 352549 324806 339021 -173023
832782452865211008 352730 324984 338973 -173048
832782452883424128 352805 325109 338931 -173074
832782452901637376 352943 325222 339003 -173047
832782452919850496 353043 325260 338978 -173093
832782452938063656 353319 325596 338961 -172965
832782452956275456 353719 325971 339002 -173012
832782452974487296 354153 326433 338974 -173024
832782452992699136 354558 326895 338983 -173062
832782453010910976 354446 326761 339012 -173006
832782453029122816 354041 326198 338970 -173072
832782453047334656 353341 325589 338993 -173065
832782453065546496 352613 324831 338952 -173063
832782453083758336 351939 324209 338977 -173090
832782453101970176 351558 323820 338980 -173023
832782453120182016 351495 323714 339022 -173039
832782453138393856 351740 323979 339005 -173028
832782453156605696 352115 324302 339044 -173023
832782453174817408 352448 324670 339045 -173001
832782453193029248 352805 324924 339035 -173040
832782453211241088 352948 325096 339036 -173020
832782453229452928 352949 325147 338972 -172968
832782453247664768 353088 325215 338988 -172982
832782453265876608 353305 325453 338995 -172969
832782453284088448 353583 325789 338975 -173024
832782453302300288 354003 326279 338991 -173043
832782453320512128 354436 326690 338983 -172973
832782453338723968 354483 326706 338991 -173023
832782453356935808 354147 326341 338994 -173054
832782453375147648 353532 325770 338994 -173036
832782453393359488 352767 324970 338985 -173042
832782453411571328 352145 324359 338992 -173051
832782453429783168 351689 323831 338978 -173012
832782453447995008 351490 323716 339018 -173075
832782453466206848 351630 323808 339015 -173086
832782453484418688 352102 324230 339069 -172985
832782453502630528 352511 324708 339009 -173051
832782453520842368 352743 324949 338995 -173048
832782453539054208 352897 325118 338998 -173024
832782453557266048 352947 325110 338983 -173034
832782453575477864 352961 325236 338997 -173056
832782453593689856 353152 325435 338981 -173043
832782453611901824 353481 325706 338922 -173004
832782453630113664 353896 326134 338967 -173028
832782453648325632 354330 326538 339004 -172958
832782453666537472 354549 326748 338961 -173007
832782453684749440 354350 326544 339017 -173036
832782453702961280 353713 325924 339011 -173016
832782453721173248 352982 325284 339070 -173085
832782453739385088 352351 324540 339061 -172950
832782453757597056 351778 324059 339011 -172989
832782453775808896 351525 323750 338938 -173012
832782453794020864 351589 323735 338971 -173003
832782453812232704 351888 324107 338964 -173020
832782453830444672 352278 324488 338958 -173043
832782453848656512 352568 324811 338958 -173024
832782453866868480 352745 325051 338977 -173041
832782453885080320 352854 325149 338974 -173007
832782453903292288 352979 325214 339001 -173029
832782453921504128 353080 325273 338943 -173080
832782453939716096 353374 325589 338944 -173043
832782453957927936 353688 325989 338942 -173027
832782453976139904 354209 326417 338985 -173030
832782453994351744 354526 326754 339040 -172968
832782454012563712 354535 326844 339011 -173017
832782454030775552 354029 326329 339045 -173031
832782454048987520 353314 325532 339010 -173007
832782454067199360 352552 324778 339011 -173018
832782454085411328 351938 324189 338954 -173028
832782454103623168 351585 323892 338925 -173052
832782454121835136 351514 323764 338969 -173056
832782454140046976 351747 323996 338993 -172970
832782454158258944 352173 324388 339016 -173024
832782454176470784 352506 324734 339011 -172990
832782454194682752 352813 325002 339002 -173021
832782454212894592 352875 325091 338949 -173058
832782454231106560 352934 325150 338963 -173080
832782454249318358 353015 325252 339011 -173013
832782454267530624 353270 325514 339008 -173041
832782454285742848 353667 325887 338970 -173062
832782454303954944 354171 326341 339035 -172979
832782454322167168 354500 326701 339042 -173028
832782454340379264 354509 326690 339034 -173039
832782454358591488 354208 326427 339062 -173054
832782454376803584 353548 325734 338994 -173024
832782454395015808 352780 324986 339001 -173005
832782454413227904 352141 324361 339028 -173011
832782454431440128 351700 323895 339015 -172991
832782454449652352 351552 323757 338992 -172991
832782454467864448 351756 323917 339084 -173022
832782454486076672 352021 324303 339100 -172972
832782454504288768 352435 324671 339058 -172967
832782454522500992 352888 325030 339032 -173054
832782454540713088 352939 325108 339015 -173044
832782454558925312 352960 325165 339002 -173091
832782454577137536 353029 325285 338976 -173096
832782454595349632 353218 325484 339050 -173016
832782454613561856 353503 325745 338950 -173033
832782454631773952 353936 326135 338912 -173067
832782454649986176 354395 326572 339019 -173006
832782454668198272 354492 326744 338995 -173022
832782454686410496 354218 326508 338993 -173030
832782454704622592 353707 325930 339032 -173053
832782454722834816 352912 325221 338958 -173047
832782454741047040 352251 324521 339034 -173019
832782454759259136 351711 323968 339026 -173024
832782454777471360 351551 323764 338992 -173039
832782454795683456 351569 323819 338987 -173042
832782454813895680 351923 324137 338980 -173043
832782454832107776 352323 324516 339001 -173043
832782454850320000 352627 324825 338993 -173056
832782454868532096 352772 325036 338972 -173042
832782454886744320 352879 325069 338963 -173093
832782454904956390 352980 325148 338949 -173073
832782454923168768 353089 325271 338963 -173039
832782454941381120 353393 325577 338947 -173062
832782454959593600 353876 325993 339017 -173008
832782454977805952 354225 326390 338959 -173009
832782454996018432 354460 326693 338966 -173021
832782455014230784 354359 326608 339024 -173018
832782455032443136 353874 326124 338957 -173002
832782455050655616 353241 325427 338942 -173077
832782455068867968 352501 324678 339025 -173063
832782455087080320 351890 324160 338994 -172985
832782455105292800 351564 323809 338901 -172977
832782455123505152 351641 323818 339000 -173000
832782455141717632 351851 324078 338993 -172996
832782455159929984 352175 324431 338949 -173061
832782455178142336 352516 324736 338992 -173056
832782455196354816 352770 324979 338950 -173061
832782455214567168 352950 325188 339018 -172962
832782455232779648 352947 325223 339056 -173051
832782455250992000 353104 325287 339027 -173012
832782455269204352 353309 325593 339075 -173016
832782455287416832 353693 325928 339002 -172991
832782455305629184 354159 326375 339049 -172993
832782455323841536 354499 326768 339018 -173011
832782455342054016 354504 326756 339073 -173012
832782455360266368 354075 326308 339028 -173024
832782455378478848 353486 325711 339016 -172992
832782455396691200 352733 324996 339057 -172967
832782455414903552 352027 324302 338975 -172968
832782455433116032 351644 323900 338963 -173018
832782455451328384 351545 323746 338988 -172987
832782455469540864 351749 323973 338986 -172936
832782455487753216 352228 324414 338955 -173014
832782455505965568 352552 324786 339008 -173009
832782455524178048 352771 324998 338958 -173021
832782455542390428 352894 325165 339000 -173003
832782455560600704 352947 325206 339051 -173016
832782455578811008 353062 325272 339077 -172985
832782455597021184 353248 325440 339043 -173026
832782455615231488 353570 325780 338971 -173041
832782455633441792 354035 326210 338989 -173004
832782455651651968 354424 326627 338994 -173006
832782455669862272 354488 326716 338953 -173034
832782455688072576 354208 326467 339009 -173038
832782455706282880 353640 325868 338968 -173114
832782455724493056 352896 325130 338988 -173090
832782455742703360 352217 324432 339034 -173008
832782455760913664 351749 323915 339014 -172995
832782455779123840 351555 323722 339004 -172982
832782455797334144 351701 323921 339004 -173012
832782455815544448 351948 324133 339027 -173098
832782455833754624 352358 324557 338999 -172963
832782455851964928 352669 324925 339001 -173022
832782455870175232 352904 325121 339022 -172995
832782455888385536 353029 325235 339061 -173037
832782455906595712 353064 325248 339051 -173006
832782455924806016 353187 325340 339021 -173020
832782455943016320 353505 325697 339015 -173012
832782455961226496 353865 326110 339023 -172992
832782455979436800 354294 326523 339015 -173013
832782455997647104 354680 326880 339032 -173010
832782456015857280 354415 326710 339018 -172980
832782456034067584 353948 326133 339058 -172991
832782456052277888 353198 325412 339016 -173007
832782456070488064 352495 324673 339034 -173016
832782456088698368 351940 324036 339058 -173028
832782456106908672 351581 323768 339060 -173031
832782456125118976 351666 323848 339051 -172990
832782456143329152 351916 324144 339098 -173026
832782456161539456 352307 324504 339089 -172962
832782456179749702 352632 324860 339038 -173005
832782456197961472 352818 324998 339012 -173038
832782456216173184 353006 325146 339029 -173001
832782456234384768 353057 325186 339045 -172983
832782456252596480 353131 325301 339009 -173041
832782456270808064 353370 325538 338998 -173028
832782456289019776 353783 325952 339036 -172992
832782456307231488 354201 326409 339028 -173031
832782456325443072 354516 326787 339053 -173016
832782456343654784 354485 326664 338988 -173041
832782456361866368 354059 326236 338992 -173035
832782456380078080 353456 325601 339073 -173012
832782456398289792 352619 324844 339027 -172999
832782456416501376 352041 324252 339046 -173001
832782456434713088 351645 323842 339048 -173004
832782456452924672 351519 323760 338999 -173052
832782456471136384 351781 323945 338948 -173072
832782456489348096 352116 324316 339006 -173025
832782456507559680 352462 324673 338990 -173044
832782456525771392 352786 324961 338994 -173000
832782456543982976 352910 325135 338983 -173014
832782456562194688 353088 325179 339074 -172980
832782456580406400 353119 325274 339076 -173033
832782456598617984 353272 325454 339024 -173005
832782456616829696 353608 325828 339023 -172985
832782456635041280 354099 326271 339049 -173064
832782456653252992 354495 326657 339003 -173048
832782456671464576 354515 326720 338987 -173010
832782456689676288 354188 326414 338997 -173012
832782456707888000 353637 325815 339002 -173018
832782456726099584 352933 325157 339007 -172994
832782456744311296 352194 324474 338994 -173019
832782456762522880 351766 324000 339072 -173016
832782456780734592 351541 323784 338991 -173062
832782456798946304 351737 323893 339024 -173003
832782456817157810 352042 324260 339012 -173039
832782456835370112 352421 324637 339017 -173004
832782456853582464 352768 324951 339035 -172992
832782456871794688 352916 325109 339016 -173023
832782456890007040 352979 325114 339017 -173048
832782456908219264 353043 325247 339009 -173008
832782456926431616 353219 325426 339022 -173026
832782456944643840 353503 325691 339002 -172970
832782456962856192 353966 326127 339000 -173018
832782456981068416 354364 326552 339000 -173030
832782456999280768 354514 326746 339054 -172956
832782457017493120 354341 326588 338956 -172995
832782457035705344 353863 326034 338973 -172994
832782457053917696 353149 325265 339008 -172983
832782457072129920 352351 324558 338982 -173014
832782457090342272 351812 324046 338989 -173001
832782457108554496 351566 323804 338947 -172960
832782457126766848 351612 323826 338993 -173051
832782457144979072 351875 324108 338958 -173076
832782457163191424 352258 324469 338995 -173074
832782457181403648 352639 324854 339029 -173019
832782457199616000 352837 325082 339073 -173079
832782457217828352 352879 325135 339018 -173086
832782457236040576 352966 325234 339057 -173070
832782457254252928 353199 325354 339027 -172957
832782457272465152 353416 325594 339021 -172977
832782457290677504 353812 326035 339084 -172999
832782457308889728 354239 326415 339039 -173033
832782457327102080 354560 326703 338990 -172967
832782457345314304 354468 326665 338998 -172989
832782457363526656 354013 326227 339057 -173031
832782457381739008 353361 325556 339075 -173041
832782457399951232 352628 324832 339070 -173000
832782457418163584 352002 324209 339054 -173037
832782457436375808 351628 323907 339071 -173051
832782457454588160 351596 323852 339050 -173039
832782457472800420 351796 324041 339038 -173029
832782457491012736 352200 324433 339016 -173016
832782457509225088 352537 324741 338990 -172971
832782457527437312 352793 325018 339057 -172953
832782457545649664 353010 325201 339032 -172990
832782457563861888 353008 325255 339014 -173042
832782457582074240 353122 325321 339025 -173010
832782457600286464 353352 325506 339022 -172989
832782457618498816 353671 325879 339042 -173039
832782457636711040 354107 326348 339024 -172968
832782457654923392 354442 326682 339020 -173007
832782457673135744 354525 326673 339067 -172987
832782457691347968 354197 326366 339105 -173019
832782457709560320 353579 325780 339101 -173010
832782457727772544 352860 325037 339066 -173028
832782457745984896 352194 324388 339050 -172996
832782457764197120 351716 323936 338999 -172994
832782457782409472 351570 323834 339067 -172973
832782457800621696 351735 323988 339049 -172973
832782457818834048 352098 324311 339050 -172980
832782457837046272 352466 324708 339019 -172977
832782457855258624 352708 324947 339031 -172971
832782457873470976 352880 325127 339024 -173017
832782457891683200 353010 325171 338976 -172974
832782457909895552 353026 325239 338958 -172995
832782457928107776 353294 325509 339045 -172983
832782457946320128 353610 325826 339068 -172983
832782457964532352 354018 326230 339100 -172979
832782457982744704 354510 326769 339086 -173051
832782458000956928 354609 326833 339061 -173027
832782458019169280 354341 326616 339020 -173021
832782458037381632 353861 325992 339002 -173026
832782458055593856 353060 325255 339019 -173025
832782458073806208 352329 324530 339002 -173052
832782458092018432 351817 324057 339036 -173019
832782458110230784 351563 323786 339040 -173022
832782458128443030 351650 323893 339016 -173033
832782458146654592 351994 324166 338973 -173007
832782458164866176 352363 324521 339060 -173007
832782458183077888 352711 324901 339069 -173053
832782458201289472 352903 325067 339012 -173011
832782458219501056 352922 325129 338980 -173057
832782458237712640 352969 325228 338973 -173092
832782458255924352 353157 325425 339002 -173091
832782458274135936 353447 325659 339021 -173034
832782458292347520 353851 326069 339012 -173025
832782458310559104 354270 326478 339056 -173020
832782458328770816 354501 326714 338980 -173045
832782458346982400 354483 326648 339033 -172999
832782458365193984 353976 326202 338990 -173056
832782458383405568 353331 325563 339032 -172962
832782458401617280 352556 324802 339037 -173005
832782458419828864 351916 324176 339008 -173038
832782458438040448 351591 323872 338999 -173011
832782458456252032 351593 323847 339000 -173056
832782458474463744 351946 324119 339006 -173019
832782458492675328 352346 324589 339009 -173035
832782458510886912 352618 324796 338975 -173081
832782458529098496 352793 325032 338980 -173021
832782458547310208 352941 325168 338993 -173053
832782458565521792 353041 325186 339010 -173059
832782458583733376 353128 325343 338992 -173013
832782458601944960 353314 325516 338948 -173052
832782458620156672 353718 325972 338995 -172991
832782458638368256 354158 326312 338977 -173070
832782458656579840 354577 326738 339040 -173075
832782458674791424 354484 326734 339041 -173042
832782458693003136 354077 326362 339000 -173060
832782458711214720 353511 325725 339027 -173070
832782458729426304 352743 324996 339005 -173092
832782458747637888 352161 324334 339019 -173023
832782458765849600 351760 323906 338958 -173013
832782458784061184 351594 323870 338995 -173046
832782458802272832 351763 323911 338935 -173023
832782458820485760 352120 324298 339075 -172979
832782458838698752 352440 324700 339014 -173014
832782458856911744 352772 325000 338957 -173019
832782458875124736 352912 325172 339008 -173092
832782458893337856 353031 325206 339048 -173013
832782458911550848 353046 325291 339048 -173062
832782458929763840 353240 325457 339040 -173079
832782458947976832 353594 325823 338976 -173067
832782458966189824 354026 326249 339014 -173047
832782458984402816 354473 326644 339012 -173008
832782459002615936 354583 326880 339019 -173057
832782459020828928 354330 326557 338994 -172972
832782459039041920 353706 325973 338966 -173021
832782459057254912 352979 325220 338995 -173034
832782459075467904 352337 324568 339033 -173028
832782459093680896 351799 324053 338998 -173012
832782459111893888 351555 323772 338969 -173054
832782459130107008 351664 323923 338985 -173045
832782459148320000 352023 324245 339048 -173041
832782459166532992 352401 324641 339021 -173056
832782459184745984 352648 324930 339012 -173028
832782459202958976 352906 325140 339072 -173058
832782459221171968 352972 325187 339018 -173003
832782459239385088 353042 325349 339086 -173040
832782459257598080 353208 325410 339034 -173008
832782459275811072 353459 325678 339071 -173012
832782459294024064 353936 326181 339080 -172959
832782459312237056 354334 326549 339019 -173002
832782459330450048 354619 326846 339165 -172956
832782459348663040 354422 326701 339161 -172977
832782459366876160 353942 326174 339086 -172960
832782459385089152 353281 325484 339097 -173054
832782459403302144 352526 324727 339058 -173042
832782459421515136 351897 324088 338995 -173056
832782459439728242 351654 323878 339037 -173002
832782459457940224 351688 323820 339055 -173003
832782459476152192 351918 324147 338972 -173011
832782459494364160 352245 324483 338992 -173001
832782459512576128 352713 324908 338989 -173023
832782459530788096 352830 325132 339067 -173002
832782459549000064 352965 325198 339014 -173028
832782459567211904 353018 325290 339026 -173004
832782459585423872 353112 325336 339020 -173021
832782459603635840 353384 325606 339008 -173047
832782459621847808 353788 326023 339080 -173079
832782459640059776 354265 326398 339035 -173061
832782459658271744 354549 326720 339016 -173022
832782459676483712 354531 326740 339014 -172968
832782459694695680 354188 326383 339014 -173005
832782459712907648 353480 325696 339045 -173053
832782459731119616 352752 324924 339040 -172971
832782459749331456 352089 324299 339077 -172970
832782459767543424 351711 323884 339005 -172977
832782459785755392 351618 323813 339042 -173033
832782459803967360 351833 323987 339045 -173006
832782459822179328 352182 324348 338999 -173013
832782459840391296 352557 324807 339087 -173023
832782459858603264 352855 325030 339055 -173028
832782459876815232 352993 325178 339007 -173029
832782459895027200 353040 325184 339049 -173060
832782459913239168 353147 325299 339054 -173031
832782459931451008 353362 325561 339018 -173014
832782459949662976 353695 325816 339020 -173021
832782459967874944 354076 326255 339006 -173041
832782459986086912 354443 326657 339056 -173023
832782460004298880 354565 326742 339054 -173085
832782460022510848 354411 326623 339063 -173039
832782460040722816 353812 325931 339059 -172997
832782460058934784 352921 325216 338974 -173063
832782460077146752 352269 324484 338975 -173053
832782460095358644 351756 324010 338987 -173001
832782460113571072 351581 323785 338999 -173047
832782460131783552 351764 323955 339005 -173022
832782460149996032 352042 324300 339012 -173000
832782460168208512 352324 324636 339041 -173002
832782460186420992 352656 324962 339043 -173009
832782460204633344 352864 325129 339060 -173020
832782460222845824 353014 325198 339053 -173027
832782460241058304 353052 325315 339027 -173038
832782460259270784 353208 325453 339003 -173056
832782460277483264 353531 325796 339043 -173021
832782460295695744 353995 326168 339071 -173014
832782460313908224 354388 326594 339061 -173039
832782460332120704 354628 326808 339045 -172987
832782460350333056 354412 326585 339027 -173026
832782460368545536 353944 326137 339102 -173069
832782460386758016 353163 325316 339011 -173014
832782460404970496 352397 324661 339009 -173067
832782460423182976 351866 324069 339018 -173051
832782460441395456 351612 323813 339081 -173028
832782460459607936 351653 323858 339057 -173018
832782460477820416 351933 324138 339009 -173036
832782460496032768 352384 324503 339005 -172982
832782460514245248 352618 324859 339023 -173021
832782460532457728 352849 325084 339022 -173043
832782460550670208 352942 325139 339028 -173082
832782460568882688 353008 325213 339004 -173057
832782460587095168 353136 325340 339026 -173090
832782460605307648 353408 325621 339069 -173038
832782460623520128 353816 325996 339034 -173059
832782460641732480 354344 326462 339089 -172978
832782460659944960 354633 326729 339022 -173004
832782460678157440 354468 326663 339083 -173052
832782460696369920 354038 326226 339022 -173043
832782460714582400 353327 325532 338958 -173056
832782460732794880 352627 324842 338953 -173010
832782460751007358 351980 324189 338972 -173045
832782460769219840 351615 323816 339010 -173044
832782460787432320 351589 323813 339000 -173036
832782460805644800 351886 324053 339060 -172993
832782460823857280 352240 324446 339011 -173040
832782460842069760 352588 324819 339067 -173030
832782460860282112 352839 325044 339053 -173044
832782460878494592 352968 325187 339044 -172993
832782460896707072 352996 325224 339012 -173017
832782460914919552 353121 325367 339023 -172997
832782460933132032 353273 325521 339036 -173055
832782460951344512 353650 325846 339005 -173092
832782460969556992 354085 326312 338966 -173026
832782460987769472 354636 326832 338976 -173067
832782461005981824 354555 326829 338970 -173104
832782461024194304 354229 326445 339027 -173106
832782461042406784 353625 325811 339042 -173094
832782461060619264 352875 325105 339028 -173053
832782461078831744 352185 324414 339038 -173050
832782461097044224 351677 323905 338993 -173023
832782461115256704 351534 323765 338978 -173059
832782461133469184 351734 323952 338995 -173065
832782461151681536 352059 324230 338985 -173063
832782461169894016 352444 324644 339011 -173044
832782461188106496 352717 324894 339019 -173089
832782461206318976 352926 325096 338980 -173115
832782461224531456 352958 325162 338989 -173121
832782461242743936 353067 325217 338935 -173079
832782461260956416 353265 325410 338977 -173071
832782461279168896 353573 325693 338994 -173068
832782461297381248 354029 326202 339027 -173087
832782461315593728 354364 326566 338948 -173050
832782461333806208 354605 326791 339022 -173028
832782461352018688 354354 326582 338994 -173042
832782461370231168 353803 326028 338989 -173060
832782461388443648 353093 325288 338994 -173023
832782461406656072 352364 324580 339024 -172973
832782461424867712 351840 324040 338971 -173019
832782461443079296 351596 323765 338933 -173002
832782461461291008 351660 323881 338981 -173072
832782461479502592 351966 324110 338986 -173087
832782461497714176 352428 324591 338990 -173062
832782461515925760 352690 324899 339000 -173011
832782461534137472 352833 325061 339025 -173079
832782461552349056 352928 325164 339031 -173105
832782461570560640 353045 325195 339048 -173096
832782461588772224 353145 325333 338989 -173113
832782461606983936 353379 325596 338950 -173092
832782461625195520 353844 326038 338997 -172984
832782461643407104 354241 326416 339039 -173067
832782461661618688 354535 326753 339022 -173068
832782461679830400 354460 326635 339051 -173024
832782461698041984 354029 326168 339071 -173022
832782461716253568 353367 325531 339028 -173069
832782461734465152 352608 324772 338993 -173051
832782461752676864 351971 324168 338994 -173046
832782461770888448 351661 323815 339016 -173023
832782461789100032 351599 323848 339032 -173077
832782461807311616 351893 324112 339078 -173099
832782461825523328 352290 324432 339044 -173100
832782461843734912 352622 324826 339032 -173082
832782461861946496 352796 325013 338967 -173100
832782461880158080 352939 325164 338999 -173051
832782461898369792 352989 325223 339001 -173008
832782461916581376 353094 325279 339015 -173053
832782461934792960 353298 325526 339010 -173080
832782461953004544 353756 325927 339016 -173013
832782461971216256 354151 326371 338954 -173093
832782461989427840 354531 326724 339029 -173076
832782462007639424 354669 326962 339059 -173022
832782462025851008 354259 326490 339070 -173029
832782462044062720 353575 325789 339034 -173041
832782462062274304 352819 325025 339083 -173043
832782462080485874 352132 324375 339035 -173069
832782462098698112 351692 323940 338958 -173056
832782462116910336 351570 323809 338997 -172994
832782462135122560 351702 323933 339009 -173031
832782462153334656 352080 324276 339039 -173057
832782462171546880 352444 324659 339010 -173069
832782462189759104 352677 324924 338992 -173065
832782462207971328 352865 325094 338981 -173048
832782462226183424 353002 325148 339035 -173037
832782462244395648 353064 325221 339010 -173097
832782462262607872 353286 325463 339017 -173107
832782462280820096 353586 325760 338982 -173048
832782462299032192 354003 326209 338998 -173076
832782462317244416 354383 326668 339031 -173088
832782462335456640 354616 326844 339017 -173037
832782462353668864 354339 326543 338994 -173079
832782462371880960 353753 325971 338991 -173045
832782462390093184 352999 325248 338966 -173062
832782462408305408 352283 324503 338956 -173042
832782462426517632 351780 324014 338993 -173051
832782462444729856 351557 323766 338995 -173041
832782462462941952 351625 323932 338984 -173014
832782462481154176 351972 324194 339005 -173051
832782462499366400 352357 324584 338985 -173064
832782462517578624 352662 324836 338937 -173110
832782462535790720 352992 325212 338986 -173050
832782462554002944 353036 325195 338961 -172993
832782462572215168 353122 325284 339022 -173064
832782462590427392 353206 325374 338925 -173065
832782462608639488 353532 325681 338986 -173038
832782462626851712 353947 326068 338980 -173047
832782462645063936 354348 326491 339049 -173017
832782462663276160 354546 326666 338969 -173030
832782462681488256 354425 326553 339010 -173065
832782462699700480 353967 326099 338987 -173058
832782462717912704 353223 325437 339051 -173055
832782462736124928 352541 324704 339023 -173082
832782462754337050 351960 324115 339037 -173057
832782462772548864 351618 323858 339016 -173050
832782462790760704 351638 323847 338978 -173054
832782462808972672 351939 324107 338955 -173062
832782462827184512 352300 324444 338941 -173109
832782462845396352 352610 324755 339016 -173102
832782462863608192 352928 325020 338992 -173034
832782462881820160 353029 325078 339017 -173047
832782462900032000 353066 325229 339055 -173040
832782462918243840 353162 325330 339036 -173058
832782462936455808 353398 325579 339048 -173033
832782462954667648 353801 325956 339060 -173022
832782462972879488 354256 326419 339008 -173052
832782462991091456 354550 326707 338963 -173072
832782463009303296 354549 326732 339006 -173087
832782463027515136 354222 326400 339018 -173074
832782463045726976 353518 325738 338987 -173057
832782463063938944 352743 324947 339016 -173123
832782463082150784 352056 324289 339032 -173033
832782463100362624 351659 323929 339025 -173059
832782463118574592 351625 323841 339087 -173009
832782463136786432 351787 324016 339075 -173075
832782463154998272 352137 324319 339104 -173030
832782463173210240 352540 324703 339035 -173026
832782463191422080 352824 324970 339005 -173029
832782463209633920 352954 325152 339029 -173054
832782463227845760 352989 325185 338981 -173067
832782463246057728 353094 325267 338976 -173100
832782463264269568 353340 325533 339044 -173006
832782463282481408 353662 325822 339027 -173017
832782463300693376 354036 326280 338995 -173071
832782463318905216 354464 326639 338992 -173082
832782463337117056 354604 326750 339014 -173026
832782463355329024 354310 326462 338975 -173043
832782463373540864 353689 325850 338978 -173089
832782463391752784 353026 325201 339031 -173016
832782463409965312 352332 324514 339072 -172992
832782463428177792 351829 324004 339011 -173038
832782463446390272 351584 323806 339032 -173073
832782463464602752 351670 323922 338954 -173058
832782463482815232 352109 324363 338930 -173040
832782463501027584 352433 324635 338978 -173065
832782463519240064 352795 324956 339044 -173034
832782463537452544 352958 325156 339043 -173056
832782463555665024 352985 325229 339038 -173062
832782463573877504 353062 325281 339011 -173035
832782463592089984 353251 325426 339034 -173008
832782463610302464 353583 325729 339048 -173025
832782463628514944 353987 326107 339037 -173034
832782463646727296 354410 326588 339041 -173030
832782463664939776 354602 326722 338969 -173080
832782463683152256 354452 326582 338998 -173078
832782463701364736 353946 326149 339001 -173038
832782463719577216 353222 325412 338972 -173043
832782463737789696 352470 324666 339009 -173024
832782463756002176 351902 324080 339042 -173061
832782463774214656 351638 323850 339062 -173038
832782463792427008 351714 323885 339016 -173058
832782463810639488 351897 324144 339016 -173060
832782463828851968 352294 324522 339061 -173115
832782463847064448 352665 324849 339035 -173075
832782463865276928 352848 325118 339027 -173048
832782463883489408 352947 325229 339044 -173042
832782463901701888 352992 325265 338995 -173074
832782463919914368 353167 325368 339015 -173078
832782463938126720 353467 325613 339072 -173058
832782463956339200 353850 326054 339073 -173031
832782463974551680 354253 326440 339004 -173011
832782463992764160 354766 326881 339017 -173039
832782464010976640 354621 326753 339037 -173020
832782464029189120 354154 326373 339089 -173020
832782464047401498 353475 325664 339045 -173023
832782464065613952 352702 324909 339023 -173077
832782464083826432 351892 324225 338905 -173090
832782464102038912 351668 323814 339010 -173075
832782464120251392 351637 323803 339022 -173045
832782464138463872 351843 324024 338995 -173045
832782464156676352 352159 324398 338990 -173054
832782464174888832 352548 324757 339052 -173057
832782464193101312 352826 325101 339102 -172989
832782464211313920 352962 325253 339106 -173033
832782464229526400 353084 325282 339046 -173014
832782464247738880 353085 325320 339067 -173045
832782464265951360 353354 325562 339081 -173082
832782464284163840 353703 325929 339046 -173047
832782464302376320 354104 326311 339036 -173027
832782464320588800 354446 326661 339041 -173028
832782464338801280 354556 326796 339062 -173019
832782464357013760 354288 326467 339043 -173030
832782464375226240 353664 325889 339045 -173048
832782464393438720 352886 325156 339048 -173082
832782464411651200 352284 324450 339028 -173075
832782464429863680 351795 324014 339021 -173038
832782464448076160 351630 323837 339045 -173056
832782464466288640 351760 323951 339043 -173036
832782464484501248 352114 324275 338994 -172985
832782464502713728 352572 324639 338958 -173037
832782464520926208 352799 324901 339044 -173091
832782464539138688 352926 325085 339009 -173105
832782464557351168 352947 325131 339036 -173076
832782464575563648 353129 325321 339048 -173068
832782464593776128 353282 325431 339042 -173092
832782464611988608 353562 325758 339053 -173074
832782464630201088 354003 326163 339053 -173063
832782464648413568 354389 326556 339019 -173076
832782464666626048 354668 326791 339100 -173034
832782464684838596 354443 326586 339045 -173045
832782464703050880 353937 326037 339094 -173029
832782464721263104 353123 325331 339007 -173070
832782464739475456 352403 324632 339003 -173109
832782464757687680 351939 324130 339075 -173045
832782464775899904 351643 323803 339048 -173056
832782464794112256 351705 323909 339088 -173063
832782464812324480 351963 324205 339045 -173044
832782464830536832 352363 324562 339087 -173024
832782464848749056 352713 324889 339045 -173027
832782464866961280 352899 325070 338995 -173069
832782464885173632 352997 325149 339089 -173108
832782464903385856 353101 325266 339069 -173063
832782464921598080 353195 325354 339083 -173051
832782464939810432 353538 325665 339034 -173010
832782464958022656 353874 326076 339076 -173045
832782464976234880 354336 326573 339067 -172993
832782464994447232 354628 326759 339049 -173031
832782465012659456 354560 326709 339070 -173003
832782465030871808 354069 326257 339072 -172994
832782465049084032 353356 325559 339066 -172984
832782465067296256 352615 324831 339037 -173028
832782465085508608 352018 324221 339042 -173056
832782465103720832 351642 323871 339085 -173023
832782465121933056 351668 323855 339096 -173028
832782465140145408 351816 324008 339043 -173069
832782465158357632 352233 324402 339051 -173018
832782465176569856 352630 324801 339105 -173012
832782465194782208 352887 325086 339052 -173009
832782465212994432 352943 325171 339027 -173057
832782465231206656 353070 325284 339056 -172995
832782465249419008 353143 325353 339053 -173046
832782465267631232 353430 325577 339095 -173031
832782465285843584 353702 325938 339041 -173052
832782465304055808 354105 326375 338995 -173082
832782465322268056 354509 326766 339045 -173012
832782465340480256 354563 326769 338980 -173021
832782465358692480 354179 326386 338998 -173045
832782465376904832 353606 325795 339035 -173064
832782465395117056 352832 325106 339033 -173074
832782465413329280 352109 324414 339056 -173009
832782465431541632 351754 323898 339048 -173056
832782465449753856 351550 323746 338995 -173105
832782465467966208 351716 323941 339015 -173067
832782465486178432 352107 324260 339056 -173017
832782465504390656 352504 324652 339031 -173061
832782465522603008 352793 324948 339060 -173098
832782465540815232 352937 325117 339036 -173055
832782465559027456 353030 325181 339081 -173033
832782465577239808 353087 325298 339000 -173042
832782465595452032 353361 325504 339076 -173040
832782465613664256 353617 325732 339023 -173059
832782465631876608 354099 326202 339005 -173055
832782465650088832 354494 326623 339049 -173071
832782465668301184 354663 326795 339075 -173053
832782465686513408 354407 326580 339081 -173074
832782465704725632 353786 326065 339058 -173133
832782465722937984 353081 325250 339086 -173062
832782465741150208 352331 324520 339005 -173062
832782465759362432 351850 324014 338978 -173046
832782465777574784 351634 323834 338973 -173022
832782465795787008 351688 323892 338955 -173067
832782465813999232 351990 324208 339010 -173017
832782465832211584 352363 324534 338997 -173065
832782465850423808 352716 324942 339053 -173080
832782465868636160 352978 325155 339058 -173088
832782465886848384 353025 325215 339110 -173040
832782465905060608 353098 325274 339112 -173050
832782465923272960 353311 325445 339101 -173079
832782465941485184 353564 325694 339058 -173092
832782465959697524 353968 326078 339038 -173062
832782465977908992 354377 326538 339055 -173062
832782465996120448 354607 326809 339092 -173034
832782466014331904 354475 326655 339094 -173014
832782466032543360 354030 326187 339151 -172977
832782466050754816 353299 325503 339048 -173068
832782466068966272 352624 324785 339075 -173031
832782466087177728 351986 324172 339002 -173061
832782466105389184 351694 323891 339012 -173078
832782466123600640 351703 323882 339022 -173012
832782466141812096 351946 324144 339038 -173025
832782466160023552 352308 324506 339020 -173039
832782466178235008 352605 324778 338963 -173087
832782466196446464 352913 325083 338994 -173087
832782466214657920 353006 325258 339014 -173045
832782466232869376 353075 325270 339069 -173076
832782466251080704 353129 325420 339074 -173016
832782466269292160 353390 325616 339068 -173012
832782466287503616 353792 326009 339009 -172994
832782466305715072 354193 326449 339008 -173040
832782466323926528 354566 326776 339069 -173093
832782466342137984 354519 326764 339078 -173029
832782466360349440 354238 326449 339089 -172985
832782466378560896 353508 325728 339045 -173044
832782466396772352 352771 324989 339025 -172972
832782466414983808 352126 324405 339034 -172997
832782466433195264 351758 323933 339085 -173004
832782466451406720 351634 323823 339040 -173023
832782466469618176 351801 323969 339031 -173028
832782466487829632 352099 324336 339032 -173076
832782466506041088 352501 324764 339089 -173040
832782466524252544 352782 325011 339055 -173056
832782466542464000 352989 325211 339111 -173060
832782466560675456 353032 325318 339101 -173063
832782466578886912 353110 325354 339058 -173055
832782466597098368 353300 325518 339041 -173043
832782466615309824 353656 325864 339106 -173054
832782466633521230 354116 326279 339066 -173099
832782466651730944 354477 326682 339086 -172996
832782466669940608 354545 326777 339044 -173003
832782466688150144 354314 326555 339126 -173028
832782466706359808 353732 326022 339079 -173038
832782466724569344 353016 325317 339056 -173077
832782466742779008 352292 324580 339037 -173064
832782466760988672 351795 324036 339073 -173056
832782466779198208 351586 323851 339089 -173099
832782466797407872 351761 323961 339067 -173022
832782466815617408 352009 324313 339079 -173013
832782466833827072 352465 324639 339067 -173024
832782466852036608 352756 324936 339069 -173031
832782466870246272 352939 325122 339067 -173026
832782466888455936 352978 325215 339012 -173016
832782466906665472 353059 325317 339037 -172997
832782466924875136 353198 325435 339039 -173038
832782466943084672 353498 325779 339113 -173041
832782466961294336 353915 326185 339081 -173061
832782466979504000 354360 326583 339093 -173068
832782466997713536 354534 326815 339053 -173110
832782467015923200 354453 326693 339109 -173048
832782467034132736 353924 326134 339081 -173057
832782467052342400 353238 325439 339094 -173039
832782467070552064 352499 324678 339051 -173086
832782467088761600 351939 324129 339044 -173034
832782467106971264 351639 323830 339032 -173038
832782467125180800 351676 323912 339046 -173112
832782467143390464 351906 324180 339033 -173018
832782467161600000 352281 324560 339026 -173079
832782467179809664 352637 324877 339042 -173089
832782467198019328 352879 325131 339060 -173054
832782467216228864 352995 325183 339087 -173111
832782467234438528 353066 325234 339058 -173126
832782467252648064 353194 325377 339069 -173091
832782467270857620 353460 325623 339094 -173090
832782467289069184 353840 326030 339057 -173023
832782467307280768 354261 326454 339022 -173058
832782467325492480 354589 326783 339052 -173039
832782467343704064 354575 326695 339009 -173051
832782467361915648 354156 326333 339067 -173036
832782467380127232 353526 325613 339060 -173076
832782467398338944 352709 324927 339069 -173082
832782467416550528 352069 324313 339076 -173094
832782467434762112 351677 323948 339073 -173065
832782467452973696 351600 323856 339075 -173039
832782467471185408 351826 324016 339092 -173009
832782467489396992 352173 324434 339073 -173065
832782467507608576 352560 324854 339094 -172987
832782467525820160 352836 325096 339113 -173034
832782467544031872 352957 325144 339022 -173079
832782467562243456 353053 325245 339111 -173061
832782467580455040 353128 325294 339128 -173038
832782467598666624 353401 325516 339079 -173038
832782467616878336 353756 325907 339149 -173036
832782467635089920 354192 326347 339108 -173051
832782467653301504 354499 326678 339135 -173059
832782467671513088 354579 326771 339081 -173089
832782467689724800 354310 326459 339074 -173079
832782467707936384 353723 325894 339093 -173019
832782467726147968 353002 325174 339103 -173061
832782467744359552 352248 324478 339074 -173036
832782467762571264 351767 324005 339106 -173069
832782467780782848 351655 323871 339046 -172984
832782467798994432 351816 323996 339042 -173023
832782467817206016 352108 324291 339029 -173039
832782467835417728 352417 324675 339081 -173070
832782467853629312 352726 324928 339053 -173077
832782467871840896 352905 325163 338977 -173053
832782467890052480 353071 325213 339058 -173004
832782467908264190 353137 325233 338993 -173042
832782467926476288 353272 325524 339038 -173017
832782467944688384 353582 325789 339079 -172970
832782467962900608 354004 326173 339086 -173047
832782467981112704 354429 326620 339067 -173036
832782467999324800 354629 326820 339051 -173080
832782468017537024 354394 326628 339033 -173062
832782468035749120 353910 326270 339068 -173044
832782468053961216 353196 325452 339053 -173023
832782468072173440 352539 324735 339037 -173059
832782468090385536 351965 324142 339033 -173065
832782468108597632 351680 323830 339076 -173094
832782468126809856 351712 323917 339113 -173027
832782468145021952 352009 324176 339041 -173025
832782468163234048 352333 324566 339052 -173063
832782468181446272 352679 324906 339068 -173054
832782468199658368 352923 325111 339059 -173018
832782468217870464 353060 325222 339084 -173037
832782468236082688 353058 325253 339055 -173039
832782468254294784 353252 325446 339101 -173074
832782468272506880 353475 325676 339070 -173042
832782468290719104 353880 326047 339102 -172974
832782468308931200 354331 326553 339102 -173005
832782468327143424 354571 326808 339111 -173033
832782468345355520 354565 326758 339077 -173064
832782468363567616 354099 326315 339093 -173053
832782468381779840 353447 325659 339023 -173042
832782468399991936 352731 324956 339107 -173000
832782468418204032 352114 324287 339104 -173007
832782468436416256 351738 323976 339072 -173018
832782468454628352 351713 323922 339084 -173047
832782468472840448 351935 324122 339084 -173013
832782468491052672 352311 324487 339052 -173045
832782468509264768 352607 324784 339053 -173022
832782468527476864 352859 325059 339044 -173052
832782468545689082 353144 325336 339126 -172961
832782468563902208 353070 325338 339076 -173020
832782468582115328 353189 325409 339081 -173002
832782468600328448 353398 325561 339125 -173071
832782468618541696 353793 325930 339088 -173071
832782468636754816 354204 326406 339080 -173057
832782468654967936 354520 326748 339096 -173059
832782468673181056 354587 326841 339104 -173072
832782468691394176 354280 326494 339122 -173036
832782468709607296 353620 325832 339077 -173055
832782468727820544 352906 325072 338971 -173036
832782468746033664 352247 324419 339086 -173052
832782468764246784 351779 324006 339073 -173041
832782468782459904 351594 323881 339037 -173056
832782468800673024 351799 323985 339006 -173074
832782468818886144 352183 324358 339084 -173004
832782468837099392 352530 324739 339066 -173018
832782468855312512 352807 324980 339104 -173011
832782468873525632 353004 325166 339052 -173069
832782468891738752 353100 325216 339034 -173076
832782468909951872 353179 325324 339061 -173102
832782468928165120 353293 325460 339022 -173061
832782468946378240 353604 325768 339061 -173075
832782468964591360 354007 326271 339025 -173098
832782468982804480 354425 326726 339097 -173038
832782469001017600 354639 326877 339076 -173085
832782469019230720 354446 326617 339104 -173067
832782469037443968 353854 326062 339104 -173065
832782469055657088 353108 325283 339155 -173092
832782469073870208 352376 324590 339090 -173037
832782469092083328 351819 324075 339070 -173103
832782469110296448 351631 323841 339131 -173016
832782469128509568 351683 323935 339077 -173125
832782469146722816 352073 324232 339056 -173072
832782469164935936 352399 324644 339094 -173012
832782469183149056 352705 324944 339119 -173069
832782469201362210 352916 325154 339069 -173141
832782469219575168 352963 325219 339054 -173132
832782469237788160 353074 325260 339068 -173071
832782469256001152 353262 325440 339094 -173019
832782469274214144 353478 325694 339054 -173076
832782469292427008 353874 326111 339016 -173100
832782469310640000 354333 326540 339051 -173060
832782469328852992 354599 326819 339119 -173035
832782469347065984 354542 326682 339060 -173040
832782469365278976 354047 326211 339093 -173009
832782469383491968 353323 325491 339115 -173014
832782469401704960 352603 324862 339125 -173043
832782469419917824 352009 324239 339076 -173079
832782469438130816 351713 323902 339098 -173053
832782469456343808 351619 323881 339101 -173089
832782469474556800 351921 324132 339071 -173052
832782469492769792 352304 324490 339089 -173008
832782469510982784 352599 324872 339078 -173067
832782469529195648 352899 325109 339109 -173045
832782469547408640 353058 325272 339086 -173069
832782469565621632 353099 325260 339031 -173091
832782469583834624 353219 325368 339074 -173026
832782469602047616 353469 325644 339096 -173012
832782469620260608 353734 325985 339033 -173073
832782469638473600 354206 326388 339011 -173111
832782469656686464 354602 326774 339112 -173036
832782469674899456 354615 326788 339071 -173079
832782469693112448 354272 326444 339072 -173072
832782469711325440 353566 325769 339022 -173081
832782469729538432 352777 325041 339093 -173102
832782469747751424 352219 324386 339127 -173031
832782469765964416 351820 323983 339050 -173111
832782469784177280 351650 323769 339006 -173052
832782469802390272 351823 323990 339056 -173075
832782469820603264 352206 324353 339029 -173091
832782469838816256 352558 324761 339033 -173106
832782469857029234 352814 325075 339102 -173087
832782469875241728 352945 325234 339045 -173050
832782469893454208 353049 325165 339033 -173062
832782469911666688 353118 325250 339046 -173129
832782469929879168 353290 325443 339019 -173078
832782469948091648 353628 325785 339035 -173074
832782469966304000 354029 326301 339045 -173010
832782469984516480 354440 326707 339051 -173050
832782470002728960 354583 326802 339055 -173062
832782470020941440 354345 326543 339048 -173089
832782470039153920 353805 326013 339097 -173116
832782470057366400 353064 325284 339107 -173059
832782470075578880 352314 324534 339083 -173048
832782470093791360 351823 324088 339079 -173081
832782470112003712 351658 323900 339062 -173023
832782470130216192 351771 324012 339090 -173047
832782470148428672 352068 324261 339045 -173031
832782470166641152 352454 324616 339049 -173073
832782470184853632 352694 324904 339019 -173099
832782470203066112 352962 325112 339054 -173065
832782470221278592 353013 325206 339087 -173067
832782470239491072 353103 325251 339026 -173034
832782470257703424 353232 325442 339092 -173043
832782470275915904 353577 325728 339071 -173093
832782470294128384 353965 326224 339043 -173060
832782470312340864 354369 326542 339058 -173023
832782470330553344 354596 326815 339011 -173062
832782470348765824 354467 326680 339092 -173073
832782470366978304 353980 326226 339113 -173030
832782470385190784 353316 325552 339120 -173036
832782470403403136 352526 324742 339059 -173094
832782470421615616 351988 324178 339128 -173014
832782470439828096 351692 323902 339081 -173065
832782470458040576 351662 323851 339084 -173065
832782470476253056 351967 324133 339073 -173018
832782470494465536 352270 324499 339053 -173072
832782470512677948 352676 324830 339045 -173016
832782470530888576 353052 325226 339111 -173014
832782470549099264 353088 325286 339076 -173073
832782470567310080 353047 325304 339024 -173086
832782470585520768 353219 325416 339029 -173052
832782470603731584 353463 325678 339084 -173036
832782470621942272 353847 326030 339084 -173053
832782470640153088 354251 326476 339073 -173025
832782470658363776 354566 326823 339113 -173089
832782470676574592 354548 326747 339095 -173073
832782470694785280 354155 326339 339074 -173043
832782470712995968 353518 325726 339061 -173027
832782470731206784 352777 324960 339050 -173037
832782470749417472 352127 324307 338971 -173120
832782470767628288 351783 323974 339063 -173072
832782470785838976 351694 323817 339090 -173014
832782470804049792 351855 324034 339100 -173026
832782470822260480 352215 324344 339036 -173029
832782470840471168 352631 324750 339086 -173045
832782470858681984 352830 325034 339147 -173042
832782470876892672 353031 325157 339110 -173014
832782470895103488 353112 325266 339079 -173079
832782470913314176 353184 325335 339045 -173055
832782470931524992 353350 325516 339011 -173092
832782470949735680 353711 325912 339037 -173060
832782470967946496 354163 326332 339044 -173086
832782470986157184 354478 326727 339011 -173047
832782471004367872 354594 326842 339068 -173059
832782471022578688 354243 326528 339096 -173080
832782471040789376 353787 326037 339058 -173030
832782471059000192 353063 325284 339052 -173077
832782471077210880 352370 324528 339031 -173097
832782471095421696 351837 324066 339091 -173062
832782471113632384 351701 323878 339107 -173051
832782471131843200 351870 324023 339122 -173019
832782471150054000 352065 324331 339155 -173016
832782471168264704 352425 324705 339081 -173029
832782471186475392 352807 325029 339103 -173053
832782471204686208 352995 325150 339117 -173013
832782471222896896 353023 325222 339060 -173024
832782471241107712 353095 325305 339068 -173053
832782471259318400 353340 325520 339101 -173065
832782471277529216 353579 325832 339076 -173012
832782471295739904 353991 326206 339084 -173028
832782471313950720 354402 326635 339095 -173026
832782471332161408 354603 326841 339098 -172976
832782471350372096 354525 326720 339107 -173002
832782471368582912 353947 326167 339110 -173024
832782471386793600 353230 325477 339098 -173004
832782471405004416 352504 324710 339078 -173068
832782471423215104 351957 324161 339068 -173093
832782471441425920 351698 323873 339083 -173058
832782471459636608 351769 323967 339121 -173014
832782471477847424 351941 324218 339028 -173092
832782471496058112 352272 324541 338988 -173075
832782471514268800 352667 324880 339077 -173085
832782471532479616 352869 325121 339102 -173022
832782471550690304 353045 325258 339127 -173024
832782471568901120 353129 325338 339092 -173004
832782471587111808 353174 325509 339039 -173098
832782471605322624 353432 325728 339043 -173046
832782471623533312 353879 326069 339056 -173126
832782471641744128 354317 326488 339081 -173052
832782471659954816 354623 326811 339089 -173043
832782471678165504 354597 326737 339131 -173076
832782471696376320 354247 326333 339132 -173082
832782471714587008 353476 325621 339061 -173105
832782471732797824 352762 324924 339095 -173057
832782471751008512 352099 324308 339122 -173047
832782471769219328 351701 323927 339072 -173053
832782471787430062 351687 323901 339081 -173018
832782471805640576 351923 324100 339138 -173019
832782471823851136 352273 324431 339101 -173059
832782471842061568 352633 324825 339074 -173051
832782471860272128 352861 325085 339102 -173017
832782471878482688 352978 325229 339095 -173077
832782471896693120 353098 325226 339121 -173022
832782471914903680 353179 325362 339113 -173003
832782471933114240 353395 325601 339061 -173041
832782471951324672 353783 325992 339125 -173013
832782471969535232 354176 326400 339067 -173007
832782471987745664 354558 326761 339078 -173069
832782472005956224 354636 326887 339092 -173014
832782472024166784 354349 326547 339089 -173055
832782472042377216 353678 325826 339027 -173040
832782472060587776 352973 325077 339090 -173038
832782472078798336 352290 324441 339078 -173046
832782472097008768 351782 323943 339085 -173063
832782472115219328 351677 323806 339087 -173042
832782472133429888 351858 324056 339109 -172986
832782472151640320 352119 324297 339095 -173070
832782472169850880 352488 324652 339075 -173025
832782472188061440 352841 325009 339105 -173000
832782472206271872 352937 325153 339052 -173059
832782472224482432 353087 325291 339093 -173024
832782472242692864 353079 325368 339111 -173092
832782472260903424 353331 325536 339071 -173024
832782472279113984 353649 325895 339058 -173111
832782472297324416 354087 326297 339076 -173072
832782472315534976 354483 326681 339038 -173079
832782472333745536 354619 326891 339074 -173051
832782472351955968 354451 326705 339105 -173042
832782472370166528 353879 326096 339051 -173057
832782472388377088 353193 325358 339081 -173033
832782472406587520 352466 324640 339077 -173051
832782472424798080 351949 324126 339176 -173060
832782472443008584 351752 323870 339131 -173111
832782472461219712 351782 323944 339183 -173033
832782472479430784 352069 324214 339145 -173061
832782472497641728 352450 324638 339084 -173070
832782472515852800 352772 324984 339073 -173034
832782472534063872 352959 325185 339063 -173082
832782472552274944 353153 325315 339190 -173016
832782472570485888 353200 325340 339132 -173010
832782472588696960 353214 325446 339077 -173073
832782472606908032 353521 325658 339110 -173088
832782472625119104 353939 326144 339067 -173047
832782472643330048 354377 326544 339096 -173030
832782472661541120 354604 326784 339069 -173086
832782472679752192 354566 326748 339079 -173063
832782472697963264 354082 326314 339106 -173064
832782472716174208 353405 325561 339081 -173065
832782472734385280 352632 324899 339079 -173044
832782472752596352 352018 324234 339045 -173060
832782472770807424 351752 323904 339086 -173036
832782472789018368 351680 323824 339104 -173028
832782472807229440 351966 324088 339162 -173070
832782472825440512 352267 324428 339100 -173064
832782472843651584 352643 324761 339074 -173073
832782472861862528 352854 325038 339027 -173094
832782472880073600 353028 325225 339092 -173064
832782472898284672 353076 325303 339090 -173060
832782472916495744 353245 325402 339140 -173007
832782472934706688 353427 325601 339095 -173012
832782472952917760 353749 325991 339022 -173017
832782472971128832 354263 326445 339066 -173051
832782472989339904 354536 326767 339078 -173025
832782473007550848 354589 326806 339080 -173058
832782473025761920 354382 326523 339029 -173099
832782473043972992 353645 325897 339123 -173072
832782473062184064 352832 325060 339091 -173089
832782473080395008 352197 324418 339105 -173056
832782473098606080 351786 323965 339107 -173050
832782473116817034 351662 323883 339073 -173045
832782473135027840 351818 324035 339077 -173039
832782473153238656 352148 324262 339038 -173078
832782473171449472 352540 324728 339079 -173053
832782473189660160 352784 325014 339055 -173102
832782473207870976 352974 325183 339028 -173096
832782473226081792 352978 325187 338972 -173163
832782473244292608 353182 325356 339072 -172993
832782473262503424 353293 325471 339037 -173063
832782473280714112 353668 325852 339038 -173061
832782473298924928 354115 326276 339071 -173054
832782473317135744 354479 326611 339055 -173054
832782473335346560 354620 326846 339091 -173018
832782473353557376 354322 326589 339085 -173128
832782473371768192 353805 326001 339048 -173095
832782473389978880 353155 325339 339147 -173079
832782473408189696 352370 324608 339060 -173119
