TIMESTAMP PPG0 PPG1 PPG2 AMBIENT
832782548849763968 349742 314673 337370 -173076
832782548867945728 349741 314738 337283 -173073
832782548886127616 349732 314691 337331 -173109
832782548904309376 349692 314666 337319 -173116
832782548922491264 349727 314677 337355 -173077
832782548940673024 349761 314678 337292 -173085
832782548958854912 349816 314687 337320 -173108
832782548977036672 349811 314706 337267 -173088
832782548995218560 349809 314702 337278 -173050
832782549013400320 349731 314769 337275 -173091
832782549031582208 349733 314680 337270 -173082
832782549049763968 349759 314694 337272 -173067
832782549067945728 349759 314743 337315 -173060
832782549086127616 349788 314755 337289 -173092
832782549104309376 349776 314677 337269 -173046
832782549122491264 349792 314681 337329 -173037
832782549140673024 349750 314656 337306 -173052
832782549158854912 349765 314692 337388 -173019
832782549177036672 349805 314703 337393 -173058
832782549195218560 349750 314722 337335 -173087
832782549213400320 349799 314724 337366 -173058
832782549231582208 349813 314678 337342 -173022
832782549249763968 349835 314753 337327 -173071
832782549267945728 349812 314724 337305 -173073
832782549286127616 349760 314688 337339 -173053
832782549304309376 349720 314703 337368 -173114
832782549322491264 349749 314722 337383 -173076
832782549340673024 349786 314777 337347 -173079
832782549358854912 349734 314724 337308 -173122
832782549377036672 349782 314774 337353 -173099
832782549395218560 349791 314736 337305 -173034
832782549413400320 349843 314744 337328 -173100
832782549431582208 349806 314754 337372 -173065
832782549449763968 349755 314660 337353 -173134
832782549467945728 349760 314708 337318 -173086
832782549486127616 349783 314724 337329 -173058
832782549504309376 349789 314748 337332 -173080
832782549522491264 349745 314701 337315 -173050
832782549540673024 349761 314754 337353 -173038
832782549558854912 349718 314703 337275 -173081
832782549577036672 349788 314730 337329 -173056
832782549595218560 349782 314709 337355 -173014
832782549613400320 349791 314738 337337 -173109
832782549631582208 349798 314766 337353 -173055
832782549649763968 349820 314721 337331 -173073
832782549667945728 349767 314647 337294 -173112
832782549686127616 349805 314697 337346 -173047
832782549704309376 349856 314735 337419 -173062
832782549722491264 349816 314739 337315 -173053
832782549740673024 349816 314756 337366 -173004
832782549758854912 349749 314762 337326 -173063
832782549777036618 349784 314726 337351 -173051
832782549795249792 349790 314729 337355 -173043
832782549813462912 349757 314742 337316 -173060
832782549831676032 349753 314731 337310 -173105
832782549849889280 349741 314629 337302 -173081
832782549868102400 349736 314669 337262 -173081
832782549886315520 349821 314692 337327 -173044
832782549904528640 349783 314638 337316 -173067
832782549922741760 349753 314675 337283 -173102
832782549940954880 349740 314653 337305 -173110
832782549959168128 349739 314689 337335 -173062
832782549977381248 349724 314627 337328 -173013
832782549995594368 349726 314678 337315 -173040
832782550013807488 349764 314658 337393 -173038
832782550032020608 349799 314660 337405 -173023
832782550050233728 349709 314698 337355 -173080
832782550068446976 349749 314704 337380 -173043
832782550086660096 349758 314641 337305 -173038
832782550104873216 349798 314775 337396 -173058
832782550123086336 349781 314700 337352 -173038
832782550141299456 349739 314715 337326 -173046
832782550159512704 349769 314700 337302 -173042
832782550177725824 349787 314741 337387 -173033
832782550195938944 349826 314690 337308 -173034
832782550214152064 349809 314713 337338 -173070
832782550232365184 349789 314710 337367 -173064
832782550250578304 349776 314794 337331 -173088
832782550268791552 349813 314748 337263 -173046
832782550287004672 349745 314722 337265 -173076
832782550305217792 349828 314725 337277 -173039
832782550323430912 349743 314706 337287 -173090
832782550341644032 349776 314675 337314 -173052
832782550359857152 349800 314721 337318 -173090
832782550378070400 349723 314687 337330 -173146
832782550396283520 349720 314687 337296 -173105
832782550414496640 349757 314709 337267 -173109
832782550432709760 349748 314731 337276 -173059
832782550450922888 352187 317179 337305 -173103
832782550469134336 353424 318401 337272 -173137
832782550487345792 354155 319019 337264 -173115
832782550505557120 354672 319665 337376 -173067
832782550523768576 354962 319860 337363 -173148
832782550541979904 355050 320043 337319 -173158
832782550560191360 355147 320100 337378 -173030
832782550578402688 355211 320144 337348 -173033
832782550596614144 355346 320264 337289 -173123
832782550614825472 355525 320488 337310 -173034
832782550633036928 355829 320783 337318 -173034
832782550651248384 356131 321091 337369 -173045
832782550669459712 356267 321134 337354 -173075
832782550687671168 356087 321031 337390 -173067
832782550705882496 355664 320674 337359 -173107
832782550724093952 355167 320136 337353 -173096
832782550742305280 354635 319619 337313 -173082
832782550760516736 354290 319258 337294 -173060
832782550778728064 354186 319124 337296 -173056
832782550796939520 354237 319201 337302 -173046
832782550815150848 354429 319417 337335 -173102
832782550833362304 354774 319654 337332 -173044
832782550851573760 354992 319921 337355 -173058
832782550869785088 355134 320034 337328 -173054
832782550887996544 355175 320093 337296 -173102
832782550906207872 355205 320166 337315 -173076
832782550924419328 355285 320220 337332 -173100
832782550942630656 355456 320396 337315 -173073
832782550960842112 355782 320655 337331 -173090
832782550979053440 356073 320972 337355 -173062
832782550997264896 356271 321087 337340 -173078
832782551015476352 356196 321147 337381 -173093
832782551033687680 355819 320779 337301 -173128
832782551051899136 355375 320445 337337 -173070
832782551070110464 354792 319795 337354 -173117
832782551088321838 354512 319412 337454 -173052
832782551106535808 354252 319158 337374 -173043
832782551124749824 354211 319243 337363 -173098
832782551142963840 354372 319351 337337 -173104
832782551161177728 354670 319619 337332 -173069
832782551179391744 354897 319837 337314 -173052
832782551197605760 355095 320004 337305 -173047
832782551215819776 355187 320098 337305 -173060
832782551234033792 355129 320090 337318 -173071
832782551252247680 355221 320182 337334 -173069
832782551270461696 355394 320309 337321 -173097
832782551288675712 355637 320548 337258 -173095
832782551306889728 355985 320953 337354 -173047
832782551325103744 356203 321134 337365 -173058
832782551343317632 356181 321089 337344 -173077
832782551361531648 355923 320919 337373 -173097
832782551379745664 355485 320464 337394 -173100
832782551397959680 354991 319906 337349 -173061
832782551416173696 354576 319458 337279 -173097
832782551434387584 354304 319209 337381 -173113
832782551452601600 354206 319145 337351 -173088
832782551470815616 354288 319249 337306 -173143
832782551489029632 354636 319634 337355 -173104
832782551507243648 354872 319778 337303 -173104
832782551525457536 355113 319922 337291 -173081
832782551543671552 355177 320029 337287 -173111
832782551561885568 355160 320070 337325 -173096
832782551580099584 355290 320149 337325 -173109
832782551598313600 355434 320359 337326 -173040
832782551616527488 355624 320555 337353 -173096
832782551634741504 355963 320845 337343 -173093
832782551652955520 356153 321100 337321 -173110
832782551671169536 356233 321167 337393 -173051
832782551689383552 356085 321003 337339 -173053
832782551707597440 355635 320566 337361 -173112
832782551725811456 355117 320034 337338 -173093
832782551744025484 354631 319602 337363 -173046
832782551762237952 354338 319350 337390 -173052
832782551780450432 354198 319190 337367 -173076
832782551798662784 354291 319261 337381 -173057
832782551816875264 354498 319441 337364 -173045
832782551835087744 354777 319702 337314 -173027
832782551853300096 355013 319902 337345 -173071
832782551871512576 355125 320082 337357 -173003
832782551889725056 355147 320147 337355 -173078
832782551907937536 355151 320128 337309 -173092
832782551926149888 355237 320229 337344 -173057
832782551944362368 355492 320369 337330 -173087
832782551962574848 355783 320708 337355 -173103
832782551980787200 356068 320986 337410 -173093
832782551998999680 356367 321327 337360 -173020
832782552017212160 356182 321073 337291 -173073
832782552035424512 355831 320734 337382 -173044
832782552053636992 355269 320235 337320 -173090
832782552071849472 354756 319741 337338 -173119
832782552090061952 354388 319356 337334 -173075
832782552108274304 354218 319137 337301 -173047
832782552126486784 354276 319139 337342 -173070
832782552144699264 354427 319345 337298 -173071
832782552162911616 354680 319526 337321 -173082
832782552181124096 354874 319826 337312 -173068
832782552199336576 355038 319968 337279 -173107
832782552217548928 355165 320068 337275 -173128
832782552235761408 355127 320113 337294 -173114
832782552253973888 355239 320204 337262 -173100
832782552272186240 355449 320394 337306 -173080
832782552290398720 355713 320664 337376 -173080
832782552308611200 356029 320926 337296 -173113
832782552326823680 356207 321116 337311 -173111
832782552345036032 356140 321128 337286 -173139
832782552363248512 355868 320831 337274 -173125
832782552381460992 355396 320390 337331 -173112
832782552399673344 354976 319897 337376 -173095
832782552417885804 354465 319379 337297 -173096
832782552436098048 354331 319184 337356 -173054
832782552454310272 354264 319178 337350 -173035
832782552472522496 354324 319279 337253 -173073
832782552490734592 354556 319519 337301 -173075
832782552508946816 354870 319786 337367 -173047
832782552527159040 355013 320019 337368 -173040
832782552545371264 355112 320118 337345 -173080
832782552563583360 355228 320127 337418 -173080
832782552581795584 355210 320100 337378 -173044
832782552600007808 355386 320277 337386 -173044
832782552618220032 355642 320562 337357 -173035
832782552636432128 355971 320884 337344 -173053
832782552654644352 356091 321080 337305 -173107
832782552672856576 356257 321176 337359 -173040
832782552691068800 355977 321016 337343 -173050
832782552709280896 355661 320538 337323 -173095
832782552727493120 355133 320017 337349 -173109
832782552745705344 354631 319510 337297 -173098
832782552763917568 354315 319232 337342 -173104
832782552782129792 354179 319175 337301 -173113
832782552800341888 354345 319333 337374 -173029
832782552818554112 354522 319447 337340 -173063
832782552836766336 354788 319650 337344 -173064
832782552854978560 355020 319956 337348 -173050
832782552873190656 355149 320014 337348 -173025
832782552891402880 355153 320123 337303 -173072
832782552909615104 355212 320168 337373 -173069
832782552927827328 355338 320259 337334 -173093
832782552946039424 355532 320485 337382 -173036
832782552964251648 355780 320724 337315 -173074
832782552982463872 356099 321010 337343 -173088
832782553000676096 356255 321167 337319 -173061
832782553018888192 356244 321201 337342 -173062
832782553037100416 355742 320724 337294 -173057
832782553055312640 355286 320283 337295 -173105
832782553073524864 354761 319686 337263 -173143
832782553091736980 354462 319339 337321 -173108
832782553109948800 354246 319186 337291 -173115
832782553128160640 354323 319231 337344 -173061
832782553146372352 354476 319380 337335 -173051
832782553164584192 354752 319672 337321 -173058
832782553182795904 354949 319857 337326 -173095
832782553201007744 355066 320020 337314 -173079
832782553219219584 355173 320101 337361 -173087
832782553237431296 355217 320185 337413 -173078
832782553255643136 355332 320248 337330 -173037
832782553273854976 355503 320434 337320 -173036
832782553292066688 355801 320744 337378 -173011
832782553310278528 356135 321001 337364 -173033
832782553328490240 356292 321135 337303 -173059
832782553346702080 356196 321174 337340 -173046
832782553364913920 355948 320870 337339 -173073
832782553383125632 355417 320341 337338 -173090
832782553401337472 354979 319875 337402 -173035
832782553419549184 354534 319451 337364 -173062
832782553437761024 354288 319180 337329 -173124
832782553455972864 354290 319248 337403 -173009
832782553474184576 354413 319362 337384 -172989
832782553492396416 354669 319615 337355 -173081
832782553510608256 354909 319815 337333 -173090
832782553528819968 355210 320083 337355 -173063
832782553547031808 355238 320114 337345 -173067
832782553565243520 355244 320155 337371 -173080
832782553583455360 355236 320181 337305 -173115
832782553601667200 355329 320307 337300 -173119
832782553619878912 355637 320573 337320 -173116
832782553638090752 355963 320836 337330 -173143
832782553656302592 356157 321068 337317 -173136
832782553674514304 356201 321106 337285 -173110
832782553692726144 356044 320968 337335 -173070
832782553710937856 355532 320507 337306 -173088
832782553729149664 355043 319919 337355 -173103
832782553747363328 354640 319509 337360 -173104
832782553765576960 354298 319261 337291 -173115
832782553783790592 354214 319144 337323 -173090
832782553802004096 354337 319210 337351 -173091
832782553820217728 354620 319471 337356 -173068
832782553838431360 354834 319727 337336 -173119
832782553856644992 355024 319905 337343 -173117
832782553874858624 355102 319995 337265 -173134
832782553893072256 355190 320019 337355 -173070
832782553911285760 355219 320131 337432 -173061
832782553929499392 355340 320257 337366 -173052
832782553947713024 355641 320572 337385 -173039
832782553965926656 355894 320751 337333 -173088
832782553984140288 356326 321148 337353 -173050
832782554002353792 356322 321143 337332 -173122
832782554020567424 356182 321062 337352 -173076
832782554038781056 355748 320630 337349 -173109
832782554056994688 355165 320124 337315 -173138
832782554075208320 354718 319625 337323 -173097
832782554093421952 354393 319230 337325 -173080
832782554111635456 354210 319141 337322 -173090
832782554129849088 354276 319162 337330 -173092
832782554148062720 354505 319430 337376 -173022
832782554166276352 354770 319680 337348 -173016
832782554184489984 354972 319882 337354 -173095
832782554202703488 355125 320015 337338 -173073
832782554220917120 355243 320139 337356 -173094
832782554239130752 355273 320144 337329 -173025
832782554257344384 355323 320236 337334 -173125
832782554275558016 355526 320413 337379 -173116
832782554293771648 355802 320697 337339 -173117
832782554311985152 356134 321009 337417 -173019
832782554330198784 356287 321239 337403 -173097
832782554348412416 356177 321094 337361 -173053
832782554366626048 355877 320806 337333 -173067
832782554384839576 355366 320253 337344 -173074
832782554403051904 354820 319752 337302 -173097
832782554421264256 354502 319368 337301 -173040
832782554439476480 354263 319148 337278 -173099
832782554457688832 354234 319089 337257 -173105
832782554475901184 354380 319302 337336 -173068
832782554494113536 354683 319636 337386 -173106
832782554512325760 354919 319836 337345 -173031
832782554530538112 355062 320050 337374 -173116
832782554548750464 355164 320086 337403 -173131
832782554566962816 355212 320059 337363 -173119
832782554585175040 355298 320225 337335 -173073
832782554603387392 355483 320392 337396 -173075
832782554621599744 355690 320621 337372 -173103
832782554639812096 356003 320889 337374 -173111
832782554658024320 356268 321150 337397 -173001
832782554676236672 356248 321141 337357 -173096
832782554694449024 355983 320892 337359 -173117
832782554712661248 355588 320488 337349 -173037
832782554730873600 355005 319991 337344 -173048
832782554749085952 354578 319422 337303 -173087
832782554767298304 354298 319248 337340 -173115
832782554785510528 354226 319186 337314 -173140
832782554803722880 354354 319268 337371 -173068
832782554821935232 354570 319489 337362 -173104
832782554840147584 354890 319764 337360 -173067
832782554858359808 355087 319944 337314 -173067
832782554876572160 355149 320010 337349 -173079
832782554894784512 355188 320073 337394 -173082
832782554912996736 355270 320181 337366 -173081
832782554931209088 355369 320282 337312 -173088
832782554949421440 355559 320491 337350 -173117
832782554967633792 355840 320866 337350 -173104
832782554985846016 356149 321094 337374 -173124
832782555004058368 356472 321301 337408 -173103
832782555022270720 356155 321027 337385 -173104
832782555040483072 355760 320699 337424 -173087
832782555058695328 355187 320138 337345 -173071
832782555076907648 354739 319597 337380 -173090
832782555095120000 354390 319297 337415 -173070
832782555113332352 354258 319148 337386 -173070
832782555131544704 354329 319256 337404 -173106
832782555149757056 354539 319465 337387 -173117
832782555167969408 354784 319728 337355 -173081
832782555186181632 355005 319918 337343 -173073
832782555204393984 355151 320079 337368 -173087
832782555222606336 355158 320145 337356 -173132
832782555240818688 355262 320184 337355 -173062
832782555259031040 355302 320224 337313 -173120
832782555277243392 355528 320459 337345 -173113
832782555295455744 355823 320700 337330 -173126
832782555313668096 356165 321030 337377 -173086
832782555331880448 356317 321188 337371 -173070
832782555350092800 356301 321158 337403 -173037
832782555368305024 355815 320724 337330 -173137
832782555386517376 355337 320261 337382 -173122
832782555404729728 354882 319755 337354 -173111
832782555422942080 354460 319360 337330 -173096
832782555441154432 354308 319176 337365 -173076
832782555459366784 354249 319117 337330 -173078
832782555477579136 354457 319351 337331 -173128
832782555495791488 354766 319577 337432 -173051
832782555514003840 355155 319931 337366 -173027
832782555532216192 355244 320092 337410 -173038
832782555550428416 355185 320094 337350 -173081
832782555568640768 355241 320167 337403 -173072
832782555586853120 355280 320209 337407 -173094
832782555605065472 355432 320422 337360 -173108
832782555623277824 355721 320681 337326 -173065
832782555641490176 356035 320968 337333 -173081
832782555659702528 356292 321210 337435 -173065
832782555677914880 356152 321146 337382 -173155
832782555696127232 355920 320858 337366 -173106
832782555714339584 355483 320440 337407 -173099
832782555732551808 354973 319890 337333 -173074
832782555750764222 354556 319452 337342 -173082
832782555768976512 354314 319171 337361 -173051
832782555787188864 354305 319129 337378 -173059
832782555805401088 354406 319278 337395 -173097
832782555823613440 354687 319486 337352 -173059
832782555841825792 354900 319770 337325 -173091
832782555860038144 355108 319958 337383 -173067
832782555878250368 355183 320061 337343 -173110
832782555896462720 355220 320160 337327 -173045
832782555914675072 355273 320224 337331 -173050
832782555932887424 355383 320282 337315 -173086
832782555951099648 355614 320562 337381 -173100
832782555969312000 355921 320844 337334 -173104
832782555987524352 356168 321058 337331 -173073
832782556005736576 356252 321133 337351 -173080
832782556023948928 356169 321083 337308 -173070
832782556042161280 355734 320596 337373 -173036
832782556060373632 355192 320082 337337 -173104
832782556078585856 354683 319583 337325 -173146
832782556096798208 354389 319277 337379 -173122
832782556115010560 354282 319157 337351 -173148
832782556133222912 354407 319210 337349 -173124
832782556151435136 354607 319523 337385 -173062
832782556169647488 354816 319771 337366 -173069
832782556187859840 355132 319999 337372 -173081
832782556206072192 355178 320097 337430 -173019
832782556224284416 355236 320132 337415 -173033
832782556242496768 355280 320165 337348 -173053
832782556260709120 355350 320233 337323 -173057
832782556278921344 355567 320465 337365 -173137
832782556297133696 355889 320749 337401 -173039
832782556315346048 356123 321027 337384 -173041
832782556333558400 356255 321126 337374 -173093
832782556351770624 356151 321043 337319 -173079
832782556369982976 355800 320771 337367 -173097
832782556388195328 355303 320222 337349 -173081
832782556406407680 354782 319718 337301 -173110
832782556424619966 354464 319365 337335 -173037
832782556442832256 354313 319227 337384 -173073
832782556461044608 354330 319193 337382 -173053
832782556479257088 354516 319377 337458 -173056
832782556497469440 354840 319614 337419 -173054
832782556515681920 354999 319776 337389 -173029
832782556533894272 355138 319925 337326 -173024
832782556552106752 355228 320032 337378 -173054
832782556570319104 355262 320126 337378 -173045
832782556588531584 355335 320275 337413 -173060
832782556606743936 355504 320388 337333 -173082
832782556624956416 355738 320703 337382 -173046
832782556643168768 356054 320965 337387 -173058
832782556661381248 356275 321120 337368 -173081
832782556679593600 356220 321122 337360 -173068
832782556697806080 355946 320817 337351 -173028
832782556716018432 355441 320310 337348 -173056
832782556734230912 354987 319821 337379 -173025
832782556752443264 354519 319430 337371 -173062
832782556770655744 354279 319200 337395 -173085
832782556788868096 354283 319216 337419 -173020
832782556807080576 354429 319305 337385 -173059
832782556825292928 354655 319583 337356 -173099
832782556843505408 354907 319794 337333 -173130
832782556861717760 355019 319952 337340 -173103
832782556879930240 355133 320066 337340 -173082
832782556898142592 355205 320150 337298 -172997
832782556916355072 355230 320160 337329 -173067
832782556934567424 355495 320318 337308 -173047
832782556952779904 355657 320530 337355 -173065
832782556970992256 355989 320875 337403 -173040
832782556989204736 356224 321123 337428 -173086
832782557007417088 356233 321173 337386 -173039
832782557025629568 356067 320967 337396 -173061
832782557043841920 355592 320473 337357 -173033
832782557062054400 355162 319995 337319 -173045
832782557080266752 354673 319615 337346 -173067
832782557098479232 354312 319292 337322 -173111
832782557116691584 354293 319174 337356 -173059
832782557134904064 354348 319246 337351 -173022
832782557153116416 354603 319488 337376 -173052
832782557171328896 354860 319719 337343 -173096
832782557189541428 355041 319923 337366 -173079
832782557207753856 355174 320067 337385 -173091
832782557225966336 355229 320084 337364 -173105
832782557244178944 355288 320188 337365 -173111
832782557262391424 355412 320256 337309 -173065
832782557280604032 355592 320506 337329 -173073
832782557298816512 355867 320746 337313 -173081
832782557317028992 356148 321036 337376 -173068
832782557335241600 356223 321180 337363 -173114
832782557353454080 356072 321008 337314 -173096
832782557371666688 355773 320652 337326 -173075
832782557389879168 355192 320138 337285 -173146
832782557408091648 354793 319672 337314 -173100
832782557426304256 354427 319295 337354 -173098
832782557444516736 354281 319098 337352 -173021
832782557462729344 354264 319209 337336 -173095
832782557480941824 354525 319445 337378 -173088
832782557499154432 354885 319692 337372 -173072
832782557517366912 355056 319951 337352 -173040
832782557535579392 355226 320148 337370 -173099
832782557553792000 355219 320120 337355 -173065
832782557572004480 355250 320174 337350 -173093
832782557590217088 355404 320278 337428 -173044
832782557608429568 355514 320445 337354 -173055
832782557626642048 355824 320753 337428 -173011
832782557644854656 356084 321060 337400 -173030
832782557663067136 356305 321229 337428 -173028
832782557681279744 356221 321173 337413 -173051
832782557699492224 355884 320782 337377 -173035
832782557717704704 355395 320297 337398 -173091
832782557735917312 354943 319757 337385 -173092
832782557754129792 354499 319366 337350 -173156
832782557772342400 354279 319201 337386 -173067
832782557790554880 354332 319171 337391 -173072
832782557808767360 354445 319396 337467 -173075
832782557826980050 354706 319575 337370 -173081
832782557845192960 354914 319783 337366 -173045
832782557863405824 355047 320056 337335 -173103
832782557881618688 355141 320039 337359 -173106
832782557899831680 355216 320098 337347 -173043
832782557918044544 355259 320114 337339 -173130
832782557936257408 355424 320237 337373 -173078
832782557954470272 355729 320587 337406 -173086
832782557972683264 356011 320856 337368 -173053
832782557990896128 356278 321137 337359 -172990
832782558009108992 356402 321242 337366 -173033
832782558027321856 356011 320974 337363 -173050
832782558045534848 355577 320478 337370 -173064
832782558063747712 355053 319927 337379 -173107
832782558081960576 354653 319469 337395 -173085
832782558100173440 354360 319182 337382 -173155
832782558118386432 354268 319111 337336 -173081
832782558136599296 354375 319269 337323 -173089
832782558154812160 354634 319542 337403 -173102
832782558173025024 354902 319779 337379 -173112
832782558191238016 355022 319950 337402 -173159
832782558209450880 355169 320113 337387 -173095
832782558227663744 355234 320141 337385 -173136
832782558245876608 355319 320140 337344 -173093
832782558264089600 355389 320251 337322 -173052
832782558282302464 355583 320475 337271 -173043
832782558300515328 355897 320775 337363 -173138
832782558318728192 356208 321068 337385 -173047
832782558336941184 356293 321204 337378 -173125
832782558355154048 356126 321009 337367 -173057
832782558373366912 355680 320650 337381 -173019
832782558391579776 355214 320147 337383 -173002
832782558409792768 354749 319637 337373 -173061
832782558428005632 354477 319271 337366 -173038
832782558446218496 354261 319151 337360 -173063
832782558464431360 354381 319313 337421 -173047
832782558482644224 354510 319432 337351 -173117
832782558500857166 354751 319712 337386 -173046
832782558519069568 355031 319931 337412 -173047
832782558537281920 355187 320042 337394 -173058
832782558555494272 355255 320076 337403 -173043
832782558573706624 355293 320158 337411 -172997
832782558591918976 355397 320253 337382 -173047
832782558610131328 355540 320445 337340 -173065
832782558628343680 355852 320761 337349 -173071
832782558646556032 356208 320971 337348 -173012
832782558664768384 356342 321171 337372 -173071
832782558682980864 356117 321067 337325 -173040
832782558701193216 355865 320747 337383 -173014
832782558719405568 355413 320268 337415 -173004
832782558737617920 354920 319851 337415 -173061
832782558755830272 354545 319453 337374 -173017
832782558774042624 354362 319232 337424 -173024
832782558792254976 354374 319240 337349 -173068
832782558810467328 354497 319343 337299 -173094
832782558828679680 354736 319608 337346 -173086
832782558846892032 354997 319857 337381 -173028
832782558865104384 355141 320014 337365 -173019
832782558883316736 355163 320053 337334 -173040
832782558901529088 355227 320134 337393 -173067
832782558919741440 355336 320209 337437 -173045
832782558937953792 355504 320361 337398 -173043
832782558956166144 355771 320650 337368 -173081
832782558974378624 356063 320900 337394 -173107
832782558992590976 356282 321145 337338 -173108
832782559010803328 356224 321093 337361 -173077
832782559029015680 355986 320850 337400 -173059
832782559047228032 355521 320390 337416 -173097
832782559065440384 355048 319987 337458 -173030
832782559083652736 354657 319606 337401 -172996
832782559101865088 354371 319227 337372 -172997
832782559120077440 354363 319156 337350 -173047
832782559138289792 354420 319249 337335 -173075
832782559156502144 354673 319471 337384 -173128
832782559174714496 354979 319760 337394 -173056
832782559192926848 355124 319952 337395 -173047
832782559211139202 355201 320112 337349 -173107
832782559229350656 355285 320156 337404 -173057
832782559247562112 355334 320213 337388 -173022
832782559265773696 355457 320331 337385 -173026
832782559283985152 355680 320546 337372 -173036
832782559302196608 355963 320887 337326 -173069
832782559320408064 356273 321113 337389 -173062
832782559338619648 356361 321165 337336 -173068
832782559356831104 356117 321002 337393 -173038
832782559375042560 355662 320587 337368 -173108
832782559393254144 355196 320064 337369 -173045
832782559411465600 354724 319559 337380 -173054
832782559429677056 354412 319260 337337 -173008
832782559447888512 354343 319167 337380 -173016
832782559466100096 354486 319294 337430 -173051
832782559484311552 354635 319466 337413 -173087
832782559502523008 354823 319790 337371 -173099
832782559520734592 355053 319942 337331 -173082
832782559538946048 355201 320065 337356 -173058
832782559557157504 355266 320112 337421 -173092
832782559575368960 355338 320195 337431 -173108
832782559593580544 355425 320303 337402 -173077
832782559611792000 355595 320546 337365 -173071
832782559630003456 355881 320749 337300 -173072
832782559648215040 356096 321048 337356 -173105
832782559666426496 356308 321211 337383 -173053
832782559684637952 356186 321078 337410 -173065
832782559702849408 355842 320766 337411 -173053
832782559721060992 355398 320226 337416 -173009
832782559739272448 354839 319678 337321 -173092
832782559757483904 354559 319421 337411 -173021
832782559775695488 354331 319220 337367 -173044
832782559793906944 354333 319223 337374 -173053
832782559812118400 354484 319432 337386 -173114
832782559830329856 354739 319651 337401 -173100
832782559848541440 354999 319817 337385 -173078
832782559866752896 355203 319986 337316 -173090
832782559884964436 355252 320111 337350 -173024
832782559903177600 355313 320138 337345 -173088
832782559921390720 355387 320319 337408 -173056
832782559939603840 355552 320427 337363 -173031
832782559957817088 355852 320698 337389 -173045
832782559976030208 356104 320986 337336 -173121
832782559994243328 356306 321164 337362 -173071
832782560012456448 356269 321146 337419 -173098
832782560030669568 356055 320850 337441 -173097
832782560048882688 355535 320367 337381 -173096
832782560067095936 355006 319880 337361 -173117
832782560085309056 354589 319467 337404 -173113
832782560103522176 354402 319256 337415 -173065
832782560121735296 354265 319129 337343 -173069
832782560139948416 354460 319344 337454 -173064
832782560158161536 354651 319548 337455 -173077
832782560176374784 354954 319831 337408 -173102
832782560194587904 355118 320010 337384 -173128
832782560212801024 355261 320116 337366 -173042
832782560231014144 355288 320139 337404 -173026
832782560249227264 355329 320170 337384 -173105
832782560267440512 355464 320294 337353 -173045
832782560285653632 355710 320496 337369 -173039
832782560303866752 356012 320839 337382 -173074
832782560322079872 356285 321054 337388 -173094
832782560340292992 356305 321134 337325 -173088
832782560358506112 356077 320936 337384 -173082
832782560376719360 355695 320463 337384 -173093
832782560394932480 355158 320027 337406 -173060
832782560413145600 354720 319615 337338 -173090
832782560431358720 354392 319245 337388 -173073
832782560449571840 354293 319121 337387 -173082
832782560467784960 354460 319228 337415 -173072
832782560485998208 354597 319415 337357 -173068
832782560504211328 354859 319721 337388 -173077
832782560522424448 355084 319945 337379 -173041
832782560540637564 355184 320067 337357 -173077
832782560558850688 355279 320054 337364 -173079
832782560577063808 355303 320088 337377 -173068
832782560595276800 355455 320253 337451 -173074
832782560613489920 355626 320450 337401 -173057
832782560631702912 355911 320798 337417 -173068
832782560649916032 356205 321092 337354 -173086
832782560668129024 356284 321206 337340 -173107
832782560686342144 356124 321056 337315 -173055
832782560704555264 355756 320614 337322 -173059
832782560722768256 355316 320133 337370 -173067
832782560740981376 354807 319677 337342 -173059
832782560759194368 354422 319275 337347 -173096
832782560777407488 354314 319201 337448 -173028
832782560795620480 354388 319198 337476 -173005
832782560813833600 354525 319396 337416 -173078
832782560832046592 354838 319742 337433 -173039
832782560850259712 355076 319945 337403 -173025
832782560868472832 355124 320048 337382 -173051
832782560886685824 355234 320100 337401 -173018
832782560904898944 355283 320120 337380 -173023
832782560923111936 355362 320195 337367 -173058
832782560941325056 355650 320431 337443 -173000
832782560959538048 355915 320715 337455 -173041
832782560977751168 356124 320963 337421 -173034
832782560995964288 356331 321202 337404 -173074
832782561014177280 356293 321167 337405 -173042
832782561032390400 356044 320873 337400 -172986
832782561050603392 355567 320350 337388 -173003
832782561068816512 354974 319829 337387 -173065
832782561087029504 354551 319403 337380 -173027
832782561105242624 354286 319229 337416 -173007
832782561123455616 354379 319264 337452 -172993
832782561141668736 354467 319336 337371 -173098
832782561159881856 354750 319629 337398 -173033
832782561178094848 354992 319870 337439 -173042
832782561196307968 355125 320058 337403 -173078
832782561214520960 355238 320073 337432 -173031
832782561232734080 355309 320139 337394 -173076
832782561250947066 355367 320240 337428 -173087
832782561269159424 355501 320337 337326 -173078
832782561287371776 355782 320561 337355 -173085
832782561305584128 356041 320921 337363 -173036
832782561323796480 356267 321143 337352 -173085
832782561342008832 356336 321150 337412 -173034
832782561360221184 356068 320934 337439 -173009
832782561378433536 355611 320528 337408 -173093
832782561396645888 355093 319982 337394 -173117
832782561414858240 354674 319588 337337 -173082
832782561433070592 354394 319297 337413 -173043
832782561451282944 354350 319186 337406 -173050
832782561469495296 354442 319300 337379 -173055
832782561487707776 354684 319489 337396 -173018
832782561505920128 354920 319795 337374 -173040
832782561524132480 355065 319941 337435 -173107
832782561542344832 355265 320163 337351 -173109
832782561560557184 355322 320154 337402 -173041
832782561578769536 355323 320191 337374 -173111
832782561596981888 355482 320311 337411 -173092
832782561615194240 355633 320422 337349 -173107
832782561633406592 355960 320832 337344 -173092
832782561651618944 356194 321031 337397 -173037
832782561669831296 356318 321185 337389 -173058
832782561688043648 356114 321022 337422 -173070
832782561706256000 355732 320597 337333 -173107
832782561724468352 355283 320187 337483 -173070
832782561742680704 354789 319658 337425 -173044
832782561760893056 354434 319329 337428 -173035
832782561779105408 354320 319189 337361 -173033
832782561797317760 354350 319185 337350 -173073
832782561815530112 354554 319417 337391 -173078
832782561833742464 354874 319644 337368 -173062
832782561851954816 355034 319876 337412 -173074
832782561870167168 355158 320049 337417 -173089
832782561888379578 355268 320129 337398 -173085
832782561906591872 355281 320174 337396 -173070
832782561924804224 355363 320269 337401 -173050
832782561943016704 355476 320321 337412 -173087
832782561961229056 355671 320537 337352 -173116
832782561979441536 356251 320988 337429 -173052
832782561997653888 353188 317416 337386 -173075
832782562015866368 352399 316786 337369 -173080
832782562034078720 352280 316855 337399 -173096
832782562052291072 352883 317436 337386 -173109
832782562070503552 352727 317452 337404 -173094
832782562088715904 352632 317323 337335 -173096
832782562106928384 351477 316148 337384 -173068
832782562125140736 350921 315599 337401 -173090
832782562143353088 350751 315410 337430 -173114
832782562161565568 350924 315582 337334 -173104
832782562179777920 351330 315983 337411 -173082
832782562197990400 351880 316657 337366 -173058
832782562216202752 352195 316875 337385 -173077
832782562234415232 352353 317089 337371 -173044
832782562252627584 352540 317247 337417 -173086
832782562270839936 352887 317623 337383 -173056
832782562289052416 353145 317888 337413 -173061
832782562307264768 353356 318092 337404 -173026
832782562325477248 353497 318235 337432 -173004
832782562343689600 353535 318354 337395 -173119
832782562361902080 353466 318198 337448 -173063
832782562380114432 353140 317917 337412 -173086
832782562398326784 352816 317569 337352 -173073
832782562416539350 352683 317340 337412 -173080
832782562434751744 352445 317143 337413 -173093
832782562452964096 352381 317075 337387 -173125
832782562471176448 352487 317197 337402 -173072
832782562489388800 352708 317360 337360 -173062
832782562507601152 352805 317528 337343 -173123
832782562525813504 352952 317639 337342 -173075
832782562544025856 353020 317711 337367 -173093
832782562562238208 353071 317808 337412 -173080
832782562580450432 353101 317841 337398 -173078
832782562598662784 353235 317979 337421 -173080
832782562616875136 353368 318126 337399 -173119
832782562635087488 353539 318217 337397 -173120
832782562653299840 353756 318473 337354 -173092
832782562671512192 353754 318559 337403 -173079
832782562689724544 353663 318352 337398 -173040
832782562707936896 353389 318089 337371 -173063
832782562726149248 353096 317823 337373 -173095
832782562744361600 352692 317569 337402 -173090
832782562762573952 352487 317264 337348 -173105
832782562780786304 352414 317213 337395 -173064
832782562798998656 352438 317219 337379 -173061
832782562817211008 352637 317384 337372 -173054
832782562835423232 352806 317523 337419 -173063
832782562853635584 352932 317676 337388 -173073
832782562871847936 353014 317790 337451 -173098
832782562890060288 353028 317800 337367 -173068
832782562908272640 353129 317807 337432 -173056
832782562926484992 353168 317877 337439 -173077
832782562944697344 353283 318022 337443 -173064
832782562962909696 353486 318249 337432 -173058
832782562981122048 353725 318502 337513 -173086
832782562999334400 353724 318551 337471 -173104
832782563017546752 353719 318472 337463 -173086
832782563035759104 353526 318255 337412 -173080
832782563053971456 353114 317926 337423 -173091
832782563072183808 352911 317610 337403 -173024
832782563090396032 352600 317360 337417 -173043
832782563108608384 352438 317187 337396 -173042
832782563126820736 352443 317209 337363 -173067
832782563145033088 352575 317413 337432 -173053
832782563163245440 352793 317524 337398 -172980
832782563181457758 352937 317667 337362 -173046
832782563199668992 353062 317799 337407 -173051
832782563217880192 353083 317846 337388 -173045
832782563236091392 353133 317869 337367 -173028
832782563254302592 353156 317891 337420 -173067
832782563272513664 353345 317988 337414 -173052
832782563290724864 353420 318151 337382 -173102
832782563308936064 353654 318364 337381 -173072
832782563327147264 353819 318529 337399 -173074
832782563345358464 353816 318451 337413 -173069
832782563363569664 353616 318336 337443 -173090
832782563381780736 353256 318041 337429 -173006
832782563399991936 352890 317728 337379 -173088
832782563418203136 352657 317365 337376 -173074
832782563436414336 352555 317255 337423 -173018
832782563454625536 352491 317226 337388 -173085
832782563472836736 352573 317197 337383 -173071
832782563491047936 352745 317428 337434 -173059
832782563509259008 352901 317639 337431 -173091
832782563527470208 353080 317764 337295 -173137
832782563545681408 353108 317823 337321 -173156
832782563563892608 353159 317800 337356 -173122
832782563582103808 353174 317880 337376 -173147
832782563600315008 353264 317979 337386 -173096
832782563618526208 353376 318126 337371 -173064
832782563636737280 353632 318407 337342 -173103
832782563654948480 353885 318537 337372 -173028
832782563673159680 353825 318548 337395 -173053
832782563691370880 353703 318392 337380 -173069
832782563709582080 353428 318074 337441 -173068
832782563727793280 353106 317812 337386 -173059
832782563746004352 352793 317474 337363 -173098
832782563764215552 352563 317267 337366 -173077
832782563782426752 352509 317182 337404 -173064
832782563800637952 352555 317279 337408 -173095
832782563818849152 352705 317487 337477 -173042
832782563837060352 352862 317546 337386 -173079
832782563855271552 352968 317739 337374 -173048
832782563873482624 353025 317808 337382 -173038
832782563891693824 353103 317833 337422 -173058
832782563909905024 353218 317891 337413 -173058
832782563928116224 353229 317960 337325 -173071
832782563946327340 353366 318033 337352 -173064
832782563964538880 353624 318318 337400 -173034
832782563982750464 353765 318528 337433 -173055
832782564000962176 353830 318561 337439 -173035
832782564019173760 353728 318495 337436 -173038
832782564037385344 353558 318289 337348 -173116
832782564055596928 353259 317947 337440 -173067
832782564073808640 352896 317642 337406 -173019
832782564092020224 352616 317365 337407 -173073
832782564110231808 352502 317188 337389 -173132
832782564128443392 352547 317197 337447 -173086
832782564146655104 352651 317340 337379 -173141
832782564164866688 352858 317552 337445 -173063
832782564183078272 352963 317688 337403 -173088
832782564201289856 353082 317816 337376 -173062
832782564219501568 353179 317851 337401 -173047
832782564237713152 353164 317895 337377 -173027
832782564255924736 353221 317960 337349 -173046
832782564274136320 353377 318031 337425 -173088
832782564292348032 353525 318288 337394 -173100
832782564310559616 353757 318452 337480 -173055
832782564328771200 353876 318520 337442 -173012
832782564346982784 353795 318484 337453 -173073
832782564365194496 353607 318259 337411 -173078
832782564383406080 353367 318097 337442 -173073
832782564401617664 353040 317730 337433 -173039
832782564419829248 352639 317416 337356 -173075
832782564438040960 352557 317285 337420 -173107
832782564456252544 352532 317241 337484 -173037
832782564474464128 352605 317325 337419 -173053
832782564492675712 352772 317500 337395 -173100
832782564510887424 352905 317633 337376 -173113
832782564529099008 353062 317821 337437 -173100
832782564547310592 353206 317955 337400 -173113
832782564565522176 353183 317895 337384 -173097
832782564583733888 353227 317938 337376 -173122
832782564601945472 353317 318081 337398 -173068
832782564620157056 353490 318194 337369 -173112
832782564638368640 353708 318350 337416 -173055
832782564656580352 353901 318566 337451 -173065
832782564674791936 353902 318563 337448 -173044
832782564693003520 353784 318472 337494 -173035
832782564711215232 353389 318160 337398 -173063
832782564729427584 353101 317836 337438 -173057
832782564747639936 352753 317547 337387 -173095
832782564765852288 352633 317269 337407 -173121
832782564784064640 352536 317243 337419 -173086
832782564802276992 352616 317291 337433 -173114
832782564820489344 352761 317487 337428 -173070
832782564838701696 352938 317637 337455 -173079
832782564856914048 353031 317762 337419 -173108
832782564875126272 353185 317868 337402 -173091
832782564893338624 353170 317895 337369 -173089
832782564911550976 353231 317990 337418 -173043
832782564929763328 353289 318054 337419 -173085
832782564947975680 353443 318131 337332 -173136
832782564966188032 353611 318300 337328 -173099
832782564984400384 353796 318526 337388 -173044
832782565002612736 353919 318639 337428 -173058
832782565020825088 353787 318464 337437 -173117
832782565039037440 353488 318267 337419 -173098
832782565057249792 353139 317889 337430 -173137
832782565075462144 352849 317513 337356 -173110
832782565093674496 352660 317371 337356 -173127
832782565111886848 352506 317213 337347 -173073
832782565130099072 352525 317295 337431 -173124
832782565148311424 352684 317464 337435 -173073
832782565166523776 352892 317607 337462 -173102
832782565184736128 353006 317721 337354 -173132
832782565202948480 353085 317870 337367 -173068
832782565221160832 353207 317889 337420 -173045
832782565239373184 353214 317908 337419 -173048
832782565257585536 353270 317978 337403 -173105
832782565275797888 353455 318176 337418 -173060
832782565294010240 353679 318367 337433 -173054
832782565312222592 353765 318495 337412 -173014
832782565330434944 353958 318631 337467 -173052
832782565348647296 353895 318588 337396 -173073
832782565366859648 353621 318367 337415 -173091
832782565385071872 353310 318015 337406 -173064
832782565403284224 352966 317732 337391 -173068
832782565421496576 352683 317447 337352 -173064
832782565439708928 352567 317313 337390 -173059
832782565457921280 352531 317263 337383 -173077
832782565476133642 352698 317439 337423 -173000
832782565494345856 352869 317636 337388 -173074
832782565512558080 353128 317821 337365 -173025
832782565530770304 353186 317823 337362 -173050
832782565548982400 353195 317867 337400 -172986
832782565567194624 353151 317902 337389 -173054
832782565585406848 353283 317953 337376 -173045
832782565603619072 353395 318038 337437 -173091
832782565621831296 353561 318192 337412 -173117
832782565640043392 353820 318467 337447 -173045
832782565658255616 353950 318633 337501 -173067
832782565676467840 353921 318643 337465 -173053
832782565694680064 353749 318412 337448 -173072
832782565712892288 353447 318120 337423 -173024
832782565731104384 353070 317741 337386 -173069
832782565749316608 352776 317466 337351 -173075
832782565767528832 352574 317268 337366 -173034
832782565785741056 352487 317288 337361 -173127
832782565803953280 352603 317360 337438 -173089
832782565822165376 352786 317529 337400 -173112
832782565840377600 352940 317666 337403 -173081
832782565858589824 353139 317815 337396 -173104
832782565876802048 353168 317870 337386 -173124
832782565895014144 353162 317889 337417 -173080
832782565913226368 353212 317918 337418 -173115
832782565931438592 353324 317982 337391 -173089
832782565949650816 353461 318172 337449 -173050
832782565967863040 353661 318358 337480 -173060
832782565986075136 353817 318534 337429 -173093
832782566004287360 353913 318628 337484 -173091
832782566022499584 353761 318522 337421 -173071
832782566040711808 353438 318212 337384 -173144
832782566058924032 353115 317874 337355 -173134
832782566077136128 352815 317550 337389 -173107
832782566095348352 352648 317331 337420 -173105
832782566113560576 352491 317206 337402 -173100
832782566131772800 352628 317256 337403 -173098
832782566149985024 352744 317411 337393 -173061
832782566168197120 352927 317647 337363 -173060
832782566186409344 353029 317751 337404 -173065
832782566204621568 353202 317798 337401 -173087
832782566222833792 353200 317919 337361 -173086
832782566241045950 353200 317932 337366 -173119
832782566259258240 353320 317964 337380 -173088
832782566277470592 353409 318139 337405 -173067
832782566295683072 353618 318326 337382 -173064
832782566313895424 353740 318496 337380 -173097
832782566332107904 353907 318614 337437 -173057
832782566350320256 353853 318531 337442 -173061
832782566368532736 353583 318264 337402 -173077
832782566386745088 353283 317973 337419 -173022
832782566404957568 352957 317636 337437 -173007
832782566423169920 352692 317439 337446 -173046
832782566441382400 352592 317245 337434 -173069
832782566459594752 352598 317285 337457 -173072
832782566477807232 352720 317377 337429 -173061
832782566496019584 352879 317590 337419 -173050
832782566514232064 353048 317720 337398 -173099
832782566532444416 353230 317957 337418 -173063
832782566550656896 353214 317901 337390 -173090
832782566568869248 353159 317875 337376 -173127
832782566587081728 353254 317899 337303 -173103
832782566605294080 353383 318083 337334 -173074
832782566623506560 353559 318224 337377 -173052
832782566641718912 353779 318440 337412 -173033
832782566659931392 353919 318584 337378 -173068
832782566678143744 353925 318632 337404 -173112
832782566696356224 353677 318354 337383 -173107
832782566714568576 353387 318060 337400 -173045
832782566732781056 353083 317752 337404 -173071
832782566750993408 352778 317410 337410 -173087
832782566769205888 352590 317277 337374 -173035
832782566787418240 352535 317232 337389 -173043
832782566805630720 352690 317417 337405 -173044
832782566823843072 352808 317517 337415 -173055
832782566842055552 352977 317630 337395 -173108
832782566860267904 353114 317740 337457 -173081
832782566878480384 353179 317812 337407 -173060
832782566896692736 353220 317910 337412 -173089
832782566914905216 353256 318013 337443 -173068
832782566933117568 353428 318062 337424 -172994
832782566951330048 353541 318194 337395 -173053
832782566969542400 353776 318360 337429 -173091
832782566987754880 353877 318577 337412 -173050
832782567005967412 353937 318645 337361 -173097
832782567024179712 353736 318509 337373 -173109
832782567042392064 353478 318220 337359 -173146
832782567060604544 353169 317897 337420 -173081
832782567078816896 352879 317537 337405 -173097
832782567097029376 352638 317309 337404 -173095
832782567115241728 352525 317281 337390 -173105
832782567133454208 352594 317336 337373 -173109
832782567151666560 352768 317458 337389 -173091
832782567169879040 352951 317605 337419 -173061
832782567188091392 353081 317724 337369 -173154
832782567206303872 353164 317898 337383 -173095
832782567224516224 353195 317869 337362 -173137
832782567242728704 353293 317943 337408 -173086
832782567260941056 353327 318002 337436 -173080
832782567279153536 353443 318102 337428 -173081
832782567297365888 353688 318346 337479 -173098
832782567315578368 353851 318467 337373 -173092
832782567333790720 353967 318635 337389 -173128
832782567352003200 353880 318501 337469 -173056
832782567370215552 353620 318356 337468 -173056
832782567388428032 353251 317986 337462 -173053
832782567406640384 352879 317666 337378 -173080
832782567424852864 352669 317411 337443 -173027
832782567443065216 352592 317272 337355 -173020
832782567461277696 352558 317274 337332 -173071
832782567479490048 352915 317499 337373 -173086
832782567497702528 352927 317648 337423 -173100
832782567515914880 353100 317775 337424 -173058
832782567534127360 353234 317846 337496 -173063
832782567552339712 353280 317939 337526 -173043
832782567570552192 353216 317923 337447 -173070
832782567588764544 353300 318008 337451 -173038
832782567606977024 353436 318124 337416 -173070
832782567625189376 353594 318328 337446 -172987
832782567643401856 353796 318484 337345 -173056
832782567661614208 353961 318679 337452 -173068
832782567679826688 353925 318596 337434 -173051
832782567698039040 353668 318422 337440 -173076
832782567716251520 353356 318046 337371 -173053
832782567734463872 353033 317733 337397 -173028
832782567752676352 352772 317432 337390 -173124
832782567770888882 352616 317291 337408 -173109
832782567789101184 352517 317272 337369 -173096
832782567807313536 352654 317326 337329 -173146
832782567825526016 352887 317582 337432 -173065
832782567843738368 353012 317733 337431 -173037
832782567861950848 353137 317789 337380 -173039
832782567880163200 353211 317910 337399 -173029
832782567898375680 353196 317916 337400 -173030
832782567916588032 353280 318002 337435 -173045
832782567934800512 353354 318097 337415 -173040
832782567953012864 353523 318330 337354 -173047
832782567971225344 353685 318464 337303 -173110
832782567989437696 353893 318610 337441 -173039
832782568007650176 353939 318655 337447 -173099
832782568025862528 353767 318479 337430 -173143
832782568044075008 353521 318196 337440 -173047
832782568062287360 353089 317835 337421 -173075
832782568080499840 352794 317557 337489 -173114
832782568098712192 352635 317342 337445 -173115
832782568116924672 352534 317309 337413 -173114
832782568135137024 352640 317365 337441 -173044
832782568153349504 352805 317496 337432 -173078
832782568171561856 352924 317638 337420 -173110
832782568189774336 353048 317780 337367 -173081
832782568207986688 353148 317883 337429 -173100
832782568226199168 353193 317910 337398 -173079
832782568244411520 353240 317953 337391 -173060
832782568262624000 353362 317990 337472 -173100
832782568280836352 353456 318170 337475 -173081
832782568299048832 353562 318315 337420 -173127
832782568317261184 353861 318553 337360 -173046
832782568335473664 353915 318655 337343 -173115
832782568353686016 353867 318545 337382 -173090
832782568371898496 353640 318329 337393 -173037
832782568390110848 353314 318039 337431 -173095
832782568408323328 352938 317578 337393 -173070
832782568426535680 352716 317437 337472 -173056
832782568444748160 352552 317245 337361 -173124
832782568462960512 352617 317289 337391 -173108
832782568481172992 352738 317473 337355 -173117
832782568499385344 352915 317631 337421 -173062
832782568517597824 353138 317868 337399 -173090
832782568535810344 353184 317903 337437 -173048
832782568554023296 353220 318015 337433 -173039
832782568572236288 353171 317990 337372 -173068
832782568590449280 353266 317998 337430 -173114
832782568608662272 353404 318152 337430 -173136
832782568626875264 353638 318297 337401 -173174
832782568645088256 353877 318534 337433 -173082
832782568663301248 353947 318591 337386 -173072
832782568681514240 353913 318627 337412 -173070
832782568699727232 353674 318341 337390 -173089
832782568717940224 353345 318030 337332 -173104
832782568736153216 353034 317754 337411 -173071
832782568754366208 352757 317481 337337 -173092
832782568772579200 352617 317271 337421 -173079
832782568790792320 352649 317240 337432 -173114
832782568809005312 352692 317346 337419 -173107
832782568827218304 352908 317592 337418 -173021
832782568845431296 353034 317681 337407 -173136
832782568863644288 353161 317783 337439 -173132
832782568881857280 353251 317916 337380 -173017
832782568900070272 353244 317901 337340 -173068
832782568918283264 353286 317973 337343 -173059
832782568936496256 353371 318104 337312 -173145
832782568954709248 353565 318270 337305 -173139
832782568972922240 353708 318452 337342 -173103
832782568991135232 353957 318619 337395 -173077
832782569009348224 353870 318528 337309 -173185
832782569027561216 353854 318588 337391 -173091
832782569045774208 353545 318255 337501 -173072
832782569063987200 353154 317849 337463 -173092
832782569082200192 352813 317508 337434 -173129
832782569100413184 352660 317287 337350 -173070
832782569118626176 352542 317226 337374 -173141
832782569136839168 352618 317340 337395 -173086
832782569155052160 352825 317496 337474 -173059
832782569173265152 352957 317707 337418 -173068
832782569191478144 353100 317857 337439 -173074
832782569209691136 353148 317884 337406 -173116
832782569227904128 353174 317945 337437 -173055
832782569246117120 353214 317961 337421 -173080
832782569264330240 353332 318055 337469 -173112
832782569282543232 353444 318154 337381 -173141
832782569300756220 353685 318379 337439 -173065
832782569318967680 353880 318597 337450 -173019
832782569337179136 353957 318643 337456 -173039
832782569355390464 353818 318582 337477 -173061
832782569373601920 353539 318290 337382 -173093
832782569391813248 353189 317922 337372 -173107
832782569410024704 352825 317567 337381 -173125
832782569428236032 352660 317329 337403 -173035
832782569446447488 352564 317267 337407 -173055
832782569464658816 352623 317339 337434 -173044
832782569482870272 352736 317374 337356 -173108
832782569501081728 352963 317655 337414 -173092
832782569519293056 353047 317811 337441 -173053
832782569537504512 353300 318001 337474 -173070
832782569555715840 353253 317947 337393 -173134
832782569573927296 353291 317987 337451 -173096
832782569592138624 353287 318014 337370 -173071
832782569610350080 353394 318167 337362 -173113
832782569628561408 353588 318286 337386 -173095
832782569646772864 353812 318489 337408 -173085
832782569664984192 353918 318630 337407 -173097
832782569683195648 353867 318554 337384 -173082
832782569701407104 353624 318325 337370 -173062
832782569719618432 353313 317999 337367 -173090
832782569737829888 353029 317713 337404 -173038
832782569756041216 352736 317443 337397 -173043
832782569774252672 352626 317291 337446 -173062
832782569792464000 352596 317267 337421 -173106
832782569810675456 352742 317371 337395 -173078
832782569828886784 352954 317604 337434 -173056
832782569847098240 353132 317700 337453 -173051
832782569865309696 353142 317836 337453 -173145
832782569883521024 353221 317888 337401 -173097
832782569901732480 353220 317876 337331 -173122
832782569919943808 353299 317916 337362 -173108
832782569938155264 353364 318017 337357 -173103
832782569956366592 353589 318206 337376 -173121
832782569974578048 353791 318479 337399 -173098
832782569992789376 353954 318605 337402 -173109
832782570011000832 353843 318595 337370 -173160
832782570029212160 353716 318458 337480 -173077
832782570047423616 353424 318117 337436 -173071
832782570065634956 353074 317747 337355 -173069
832782570083845376 352775 317492 337359 -173072
832782570102055808 352583 317314 337362 -173102
832782570120266112 352542 317282 337373 -173056
832782570138476544 352600 317356 337357 -173065
832782570156686848 352796 317464 337380 -173076
832782570174897280 352997 317642 337379 -173126
832782570193107712 353052 317847 337425 -173144
832782570211318016 353081 317850 337414 -173125
832782570229528448 353212 317911 337451 -173070
832782570247738752 353259 317929 337370 -173116
832782570265949184 353341 318054 337441 -173115
832782570284159616 353483 318224 337416 -173064
832782570302369920 353729 318431 337442 -173076
832782570320580352 353896 318548 337440 -173070
832782570338790656 353945 318599 337412 -173035
832782570357001088 353830 318481 337356 -173062
832782570375211520 353575 318225 337403 -173014
832782570393421824 353211 317827 337403 -173121
832782570411632256 352873 317547 337398 -173095
832782570429842560 352618 317305 337343 -173081
832782570448052992 352575 317264 337387 -173119
832782570466263424 352673 317339 337453 -173031
832782570484473728 352791 317391 337408 -173067
832782570502684160 352925 317596 337379 -173094
832782570520894464 353114 317790 337411 -173073
832782570539104896 353139 317827 337394 -173166
832782570557315328 353251 317872 337442 -173097
832782570575525632 353272 317984 337416 -173102
832782570593736064 353386 317995 337473 -173086
832782570611946368 353521 318170 337443 -173088
832782570630156800 353680 318285 337352 -173129
832782570648367232 353833 318479 337415 -173097
832782570666577536 353936 318591 337449 -173114
832782570684787968 353849 318588 337432 -173097
832782570702998400 353635 318338 337455 -173080
832782570721208704 353334 318004 337425 -173124
832782570739419136 352969 317698 337473 -173136
832782570757629440 352757 317444 337477 -173080
832782570775839872 352604 317322 337498 -173090
832782570794050304 352614 317321 337430 -173033
832782570812260608 352694 317363 337396 -173054
832782570830470968 352916 317510 337454 -173043
832782570848682880 353053 317715 337435 -173039
832782570866894848 353208 317785 337442 -173048
832782570885106816 353240 317908 337437 -173082
832782570903318784 353265 317936 337399 -173119
832782570921530752 353328 317960 337433 -173128
832782570939742720 353446 318125 337423 -173079
832782570957954816 353601 318312 337401 -173116
832782570976166784 353796 318447 337383 -173116
832782570994378752 353939 318649 337384 -173108
832782571012590720 353923 318604 337383 -173110
832782571030802688 353686 318400 337400 -173117
832782571049014656 353392 318125 337400 -173090
832782571067226624 353059 317743 337469 -173102
832782571085438592 352779 317382 337393 -173082
832782571103650560 352639 317223 337408 -173071
832782571121862528 352601 317230 337438 -173088
832782571140074496 352674 317347 337416 -173069
832782571158286592 352896 317581 337462 -173080
832782571176498560 353040 317752 337459 -173081
832782571194710528 353131 317842 337448 -173107
832782571212922496 353217 317921 337448 -173109
832782571231134464 353235 317963 337450 -173110
832782571249346432 353274 317950 337448 -173099
832782571267558400 353326 318047 337404 -173057
832782571285770368 353531 318237 337435 -173089
832782571303982336 353754 318448 337430 -173058
832782571322194304 353936 318584 337412 -173099
832782571340406272 353987 318599 337451 -173100
832782571358618368 353788 318525 337447 -173090
832782571376830336 353497 318228 337460 -173026
832782571395042304 353153 317862 337434 -173060
832782571413254272 352860 317576 337423 -173086
832782571431466240 352645 317368 337391 -173086
832782571449678208 352617 317269 337447 -173087
832782571467890176 352684 317309 337454 -173111
832782571486102144 352784 317434 337371 -173107
832782571504314112 352974 317632 337448 -173123
832782571522526080 353089 317751 337396 -173087
832782571540738176 353165 317831 337397 -173127
832782571558950144 353245 317882 337345 -173121
832782571577162112 353274 317973 337413 -173096
832782571595374120 353404 318059 337416 -173121
832782571613586048 353489 318172 337373 -173144
832782571631798016 353711 318435 337456 -173036
832782571650009984 353782 318544 337355 -173094
832782571668221952 353862 318601 337365 -173102
832782571686433920 353838 318574 337420 -173073
832782571704645888 353597 318307 337405 -173126
832782571722857984 353284 317903 337423 -173107
832782571741069952 353013 317653 337488 -173077
832782571759281920 352750 317437 337445 -173093
832782571777493888 352636 317339 337430 -173087
832782571795705856 352711 317381 337481 -173099
832782571813917824 352763 317436 337442 -173046
832782571832129792 352907 317621 337416 -173087
832782571850341760 353029 317773 337415 -173125
832782571868553728 353133 317821 337393 -173073
832782571886765696 353218 317938 337405 -173072
832782571904977664 353272 317977 337363 -173082
832782571923189760 353318 317985 337373 -173120
832782571941401728 353470 318152 337418 -173048
832782571959613696 353662 318308 337416 -173099
832782571977825664 353808 318535 337391 -173122
832782571996037632 353954 318649 337410 -173128
832782572014249600 354007 318660 337417 -173059
832782572032461568 353728 318444 337407 -173072
832782572050673536 353454 318122 337457 -173074
832782572068885504 353074 317755 337400 -173094
832782572087097472 352757 317475 337406 -173050
832782572105309440 352665 317270 337384 -173064
832782572123521536 352584 317252 337431 -173082
832782572141733504 352704 317313 337452 -173099
832782572159945472 352881 317500 337369 -173077
832782572178157440 353099 317729 337421 -173030
832782572196369408 353210 317832 337447 -173063
832782572214581376 353251 317901 337438 -173065
832782572232793344 353233 317935 337432 -173077
832782572251005312 353340 317939 337484 -173031
832782572269217280 353404 318032 337429 -173040
832782572287429248 353520 318226 337435 -173057
832782572305641216 353750 318400 337402 -173071
832782572323853312 353930 318627 337376 -173092
832782572342065280 353935 318622 337404 -173122
832782572360277270 353773 318463 337433 -173107
832782572378489600 353496 318195 337456 -173103
832782572396701952 353166 317832 337452 -173078
832782572414914304 352878 317533 337517 -173078
832782572433126656 352638 317297 337445 -173089
832782572451339008 352620 317309 337483 -173051
832782572469551360 352664 317334 337417 -173081
832782572487763712 352848 317467 337379 -173110
832782572505976064 353030 317703 337400 -173071
832782572524188288 353129 317848 337425 -173090
832782572542400640 353317 318015 337460 -173100
832782572560612992 353291 317962 337364 -173112
832782572578825344 353288 317994 337386 -173092
832782572597037696 353340 318110 337388 -173081
832782572615250048 353584 318181 337384 -173048
832782572633462400 353661 318309 337348 -173124
832782572651674752 353895 318592 337477 -173082
832782572669887104 353984 318630 337482 -173039
832782572688099456 353835 318500 337468 -173063
832782572706311808 353566 318264 337413 -173063
832782572724524160 353305 317970 337516 -173011
832782572742736512 352943 317598 337457 -173067
832782572760948864 352713 317398 337424 -173040
832782572779161088 352581 317333 337433 -173115
832782572797373440 352627 317282 337387 -173096
832782572815585792 352807 317496 337464 -173081
832782572833798144 352916 317622 337421 -173097
832782572852010496 353077 317758 337408 -173093
832782572870222848 353223 317861 337476 -173078
832782572888435200 353238 317971 337443 -173041
832782572906647552 353293 317989 337433 -173079
832782572924859904 353330 318091 337400 -173119
832782572943072256 353473 318192 337395 -173130
832782572961284608 353676 318369 337382 -173137
832782572979496960 353854 318576 337408 -173094
832782572997709312 353975 318793 337422 -173107
832782573015921664 353983 318701 337429 -173060
832782573034133888 353679 318403 337408 -173077
832782573052346240 353366 318064 337344 -173090
832782573070558592 352985 317755 337449 -173128
832782573088770944 352742 317372 337434 -173086
832782573106983296 352637 317249 337424 -173067
832782573125195680 352633 317275 337435 -173099
832782573143407872 352751 317420 337488 -173076
832782573161620096 352853 317563 337422 -173128
832782573179832320 353033 317734 337438 -173124
832782573198044416 353166 317891 337445 -173094
832782573216256640 353235 317891 337434 -173119
832782573234468864 353328 318014 337448 -173098
832782573252681088 353328 317979 337414 -173079
832782573270893312 353402 318143 337422 -173098
832782573289105408 353573 318292 337368 -173105
832782573307317632 353764 318485 337370 -173103
832782573325529856 353905 318635 337403 -173062
832782573343742080 353963 318679 337443 -173116
832782573361954304 353742 318430 337382 -173106
832782573380166400 353462 318120 337416 -173127
832782573398378624 353054 317774 337388 -173108
832782573416590848 352793 317554 337403 -173063
832782573434803072 352628 317321 337325 -173062
832782573453015296 352586 317252 337355 -173126
832782573471227392 352674 317408 337380 -173086
832782573489439616 352839 317539 337434 -173056
832782573507651840 353082 317794 337385 -173068
832782573525864064 353173 317847 337421 -173133
832782573544076160 353177 317879 337354 -173111
832782573562288384 353305 317940 337439 -173053
832782573580500608 353297 318006 337429 -173093
832782573598712832 353395 318063 337396 -173057
832782573616925056 353571 318211 337396 -173043
832782573635137152 353707 318395 337380 -173077
832782573653349376 353935 318613 337366 -173078
832782573671561600 353958 318663 337384 -173098
832782573689773824 353794 318539 337416 -173079
832782573707986048 353564 318276 337380 -173100
832782573726198144 353215 317898 337400 -173086
832782573744410368 352840 317585 337388 -173166
832782573762622592 352641 317342 337438 -173105
832782573780834816 352542 317258 337371 -173085
832782573799047040 352569 317315 337363 -173155
832782573817259136 352798 317457 337425 -173097
832782573835471360 352962 317613 337344 -173119
832782573853683584 353052 317774 337360 -173097
832782573871895808 353157 317863 337382 -173095
832782573890107988 353241 317858 337413 -173078
832782573908320384 353293 317954 337398 -173078
832782573926532736 353327 317989 337365 -173108
832782573944745216 353460 318123 337396 -173114
832782573962957568 353661 318392 337407 -173109
832782573981170048 353913 318563 337432 -173098
832782573999382400 353898 318687 337442 -173104
832782574017594880 353870 318565 337452 -173119
832782574035807232 353677 318267 337433 -173126
832782574054019712 353300 317976 337398 -173119
832782574072232064 352986 317628 337421 -173116
832782574090444544 352707 317377 337484 -173159
832782574108656896 352619 317316 337446 -173089
832782574126869376 352633 317347 337429 -173124
832782574145081728 352723 317453 337414 -173088
832782574163294208 352927 317599 337408 -173092
832782574181506560 353024 317783 337422 -173113
832782574199719040 353059 317849 337398 -173140
832782574217931392 353196 317929 337430 -173103
832782574236143872 353240 318020 337462 -173074
832782574254356224 353275 318011 337433 -173075
832782574272568704 353440 318113 337449 -173074
832782574290781056 353612 318320 337428 -173072
832782574308993536 353783 318505 337429 -173025
832782574327205888 353955 318701 337496 -172999
832782574345418368 354000 318626 337486 -173051
832782574363630720 353728 318383 337370 -173085
832782574381843200 353365 318119 337380 -173106
832782574400055552 353111 317821 337480 -173051
832782574418268032 352829 317508 337405 -173093
832782574436480384 352671 317346 337395 -173110
832782574454692864 352635 317294 337416 -173094
832782574472905216 352686 317391 337424 -173131
832782574491117696 352853 317589 337494 -173057
832782574509330048 353015 317710 337462 -173082
832782574527542528 353182 317877 337420 -173082
832782574545754880 353244 317869 337448 -173089
832782574563967360 353234 318011 337501 -173076
832782574582179712 353253 318016 337457 -173050
832782574600392192 353373 318115 337435 -173065
832782574618604544 353573 318264 337406 -173052
832782574636817024 353798 318527 337399 -173075
832782574655029450 353922 318676 337457 -173033
832782574673241856 354007 318711 337439 -173090
832782574691454208 353826 318507 337402 -173079
832782574709666688 353553 318262 337378 -173039
832782574727879040 353251 317919 337353 -173034
832782574746091520 352914 317570 337339 -173081
832782574764303872 352701 317349 337425 -173091
832782574782516352 352652 317278 337419 -173058
832782574800728704 352675 317333 337394 -173092
832782574818941184 352825 317523 337451 -173065
832782574837153536 352993 317657 337378 -173087
832782574855366016 353178 317820 337437 -173023
832782574873578368 353241 317909 337407 -173117
832782574891790848 353250 317944 337370 -173120
832782574910003200 353303 317926 337419 -173081
832782574928215680 353410 318075 337445 -173077
832782574946428032 353536 318234 337436 -173088
832782574964640512 353744 318342 337420 -173062
832782574982852864 353888 318565 337441 -173048
832782575001065344 353995 318638 337472 -173055
832782575019277696 353972 318571 337472 -173080
832782575037490176 353667 318326 337501 -173050
832782575055702528 353349 318033 337545 -173078
832782575073915008 353007 317643 337462 -173064
832782575092127360 352741 317490 337467 -173119
832782575110339840 352606 317350 337357 -173080
832782575128552192 352583 317324 337440 -173106
832782575146764672 352824 317444 337506 -173099
832782575164977024 352958 317652 337440 -173085
832782575183189504 353076 317750 337364 -173127
832782575201401856 353206 317858 337369 -173106
832782575219614336 353289 317981 337398 -173096
832782575237826688 353269 317972 337400 -173071
832782575256039168 353349 318031 337481 -173021
832782575274251520 353500 318140 337432 -173105
832782575292464000 353666 318320 337453 -173096
832782575310676352 353826 318501 337469 -173103
832782575328888832 353973 318679 337420 -173091
832782575347101184 353986 318615 337454 -173043
832782575365313664 353757 318379 337411 -173120
832782575383526016 353449 318109 337441 -173059
832782575401738496 353099 317767 337462 -173074
832782575419950920 352807 317489 337415 -173097
832782575438161920 352614 317286 337446 -173137
832782575456372864 352616 317303 337398 -173126
832782575474583808 352770 317425 337483 -173091
832782575492794752 352876 317575 337494 -173075
832782575511005824 353027 317682 337402 -173122
832782575529216768 353169 317903 337433 -173106
832782575547427712 353306 317961 337446 -173037
832782575565638656 353281 317949 337500 -173057
832782575583849600 353315 318016 337523 -173029
832782575602060544 353423 318097 337448 -173007
832782575620271488 353578 318295 337418 -173039
832782575638482560 353821 318483 337476 -173040
832782575656693504 353931 318596 337423 -173114
832782575674904448 353980 318630 337429 -173097
832782575693115392 353817 318499 337407 -173133
832782575711326336 353513 318254 337389 -173094
832782575729537280 353256 317864 337384 -173067
832782575747748224 352915 317477 337405 -173109
832782575765959296 352702 317351 337433 -173026
832782575784170240 352601 317314 337450 -173076
832782575802381184 352687 317367 337459 -173096
832782575820592128 352797 317464 337438 -173102
832782575838803072 352958 317692 337380 -173141
832782575857014016 353122 317746 337406 -173089
832782575875224960 353201 317864 337406 -173128
832782575893436032 353236 317936 337424 -173123
832782575911646976 353239 318046 337438 -173137
832782575929857920 353393 318019 337374 -173130
832782575948068864 353521 318178 337408 -173137
832782575966279808 353729 318435 337417 -173136
832782575984490752 353895 318567 337430 -173062
832782576002701696 354070 318769 337419 -173063
832782576020912768 353917 318599 337417 -173102
832782576039123712 353659 318286 337413 -173123
832782576057334656 353272 317961 337428 -173104
832782576075545600 352966 317670 337397 -173074
832782576093756544 352705 317347 337353 -173131
832782576111967488 352592 317231 337322 -173125
832782576130178432 352636 317291 337371 -173102
832782576148389504 352761 317457 337406 -173104
832782576166600448 352911 317563 337395 -173149
832782576184811346 353099 317749 337405 -173142
832782576203023360 353211 317935 337442 -173148
832782576221235328 353208 317945 337407 -173123
832782576239447296 353269 317897 337401 -173142
832782576257659264 353387 318028 337457 -173069
832782576275871232 353455 318134 337449 -173102
832782576294083200 353667 318337 337439 -173102
832782576312295296 353857 318534 337433 -173108
832782576330507264 353983 318640 337422 -173115
832782576348719232 353927 318577 337374 -173093
832782576366931200 353675 318356 337318 -173110
832782576385143168 353382 317993 337362 -173064
832782576403355136 353078 317697 337429 -173065
832782576421567104 352806 317435 337442 -173072
832782576439779072 352644 317247 337404 -173059
832782576457991040 352581 317285 337451 -173120
832782576476203008 352751 317439 337469 -173091
832782576494414976 352913 317577 337396 -173096
832782576512627072 353156 317769 337343 -173062
832782576530839040 353285 317851 337404 -173064
832782576549051008 353236 317906 337385 -173113
832782576567262976 353279 317923 337429 -173082
832782576585474944 353293 317982 337450 -173173
832782576603686912 353396 318098 337441 -173146
832782576621898880 353561 318241 337429 -173116
832782576640110848 353766 318409 337435 -173123
832782576658322816 353893 318587 337403 -173134
832782576676534784 353898 318604 337401 -173102
832782576694746752 353745 318446 337384 -173136
832782576712958848 353441 318144 337359 -173148
832782576731170816 353130 317790 337433 -173111
832782576749382784 352823 317495 337402 -173130
832782576767594752 352609 317311 337433 -173158
832782576785806720 352626 317305 337446 -173104
832782576804018688 352649 317339 337445 -173113
832782576822230656 352827 317502 337441 -173094
832782576840442624 353000 317735 337422 -173048
832782576858654592 353150 317843 337386 -173110
832782576876866560 353203 317852 337356 -173099
832782576895078528 353258 317937 337418 -173078
832782576913290624 353294 317920 337463 -173115
832782576931502592 353430 318069 337479 -173008
832782576949714496 353520 318207 337464 -173124
832782576967924096 353712 318383 337450 -173117
832782576986133760 353863 318549 337421 -173074
832782577004343552 353912 318562 337425 -173114
832782577022553216 353942 318581 337387 -173093
832782577040763008 353589 318233 337383 -173131
832782577058972672 353255 317955 337425 -173099
832782577077182464 352972 317649 337408 -173047
832782577095392128 352695 317354 337416 -173122
832782577113601920 352587 317285 337420 -173127
832782577131811584 352628 317298 337434 -173130
832782577150021376 352808 317503 337362 -173088
832782577168231040 353014 317596 337337 -173057
832782577186440832 353180 317821 337401 -173100
832782577204650496 353221 317889 337386 -173096
832782577222860288 353242 317876 337365 -173079
832782577241069952 353287 317993 337425 -173004
832782577259279744 353367 318001 337383 -173064
832782577277489408 353497 318210 337389 -173105
832782577295699200 353677 318378 337446 -173061
832782577313908864 353855 318484 337440 -173091
832782577332118656 353899 318609 337363 -173088
832782577350328320 353865 318503 337372 -173111
832782577368538112 353643 318377 337389 -173073
832782577386747776 353298 318036 337415 -173102
832782577404957568 353004 317698 337389 -173076
832782577423167232 352685 317465 337400 -173113
832782577441377024 352591 317286 337422 -173104
832782577459586688 352624 317318 337450 -173098
832782577477796480 352736 317393 337401 -173107
832782577496006144 352946 317522 337373 -173117
832782577514215936 353070 317645 337407 -173148
832782577532425600 353241 317898 337384 -173138
832782577550635392 353212 317926 337449 -173130
832782577568845056 353251 317946 337394 -173090
832782577587054848 353271 317974 337438 -173092
832782577605264512 353418 318145 337430 -173089
832782577623474304 353587 318300 337463 -173092
832782577641683968 353785 318491 337398 -173107
832782577659893760 353903 318670 337383 -173074
832782577678103424 353889 318559 337381 -173078
832782577696313216 353686 318417 337424 -173099
832782577714523042 353481 318076 337376 -173141
832782577732734592 353062 317778 337371 -173183
832782577750946176 352829 317492 337414 -173087
832782577769157888 352619 317317 337418 -173194
832782577787369472 352560 317307 337451 -173212
832782577805581056 352684 317410 337471 -173107
832782577823792640 352890 317556 337425 -173086
832782577842004352 353029 317679 337421 -173116
832782577860215936 353156 317815 337413 -173163
832782577878427520 353284 317874 337435 -173097
832782577896639104 353375 317932 337429 -173106
832782577914850816 353301 317948 337418 -173080
832782577933062400 353421 318077 337473 -173073
832782577951273984 353544 318216 337403 -173144
832782577969485568 353729 318416 337425 -173062
832782577987697280 353938 318562 337424 -173104
832782578005908864 353998 318710 337458 -173094
832782578024120448 353777 318474 337386 -173130
832782578042332032 353498 318184 337293 -173114
832782578060543744 353166 317842 337407 -173124
832782578078755328 352864 317567 337399 -173122
832782578096966912 352684 317324 337430 -173162
832782578115178496 352625 317322 337456 -173102
832782578133390208 352672 317317 337382 -173105
832782578151601792 352803 317444 337397 -173087
832782578169813376 352991 317708 337396 -173092
832782578188024960 353137 317808 337441 -173154
832782578206236672 353174 317865 337411 -173127
832782578224448256 353187 317892 337416 -173125
832782578242659840 353284 317945 337417 -173075
832782578260871424 353348 317987 337397 -173099
832782578279083136 353496 318123 337385 -173096
832782578297294720 353751 318386 337411 -173079
832782578315506304 353937 318584 337417 -173091
832782578333717888 354041 318657 337460 -173100
832782578351929600 353866 318568 337387 -173134
832782578370141184 353622 318361 337399 -173120
832782578388352768 353290 318014 337359 -173133
832782578406564352 352955 317627 337411 -173115
832782578424776064 352750 317404 337393 -173109
832782578442987648 352606 317236 337403 -173113
832782578461199232 352583 317331 337343 -173153
832782578479410934 352774 317409 337445 -173054
832782578497622912 353026 317662 337453 -173095
832782578515834880 353097 317841 337406 -173082
832782578534046848 353172 317855 337413 -173095
832782578552258816 353239 317939 337447 -173128
832782578570470784 353271 317989 337451 -173127
832782578588682752 353370 318057 337453 -173098
832782578606894848 353453 318122 337415 -173106
832782578625106816 353637 318314 337472 -173111
832782578643318784 353849 318513 337474 -173087
832782578661530752 354009 318693 337458 -173050
832782578679742720 353989 318629 337453 -173059
832782578697954688 353754 318445 337479 -173091
832782578716166656 353514 318149 337520 -173111
832782578734378624 353080 317760 337408 -173141
832782578752590592 352791 317435 337394 -173131
832782578770802560 352664 317305 337403 -173128
832782578789014528 352665 317278 337414 -173085
832782578807226624 352725 317391 337490 -173061
832782578825438592 352917 317592 337405 -173062
832782578843650560 353054 317737 337443 -173074
832782578861862528 353183 317847 337433 -173072
832782578880074496 353299 317976 337430 -173094
832782578898286464 353304 317987 337465 -173085
832782578916498432 353334 318003 337505 -173092
832782578934710400 353429 318114 337477 -173092
832782578952922368 353629 318277 337523 -173092
832782578971134336 353837 318391 337467 -173081
832782578989346304 354024 318623 337445 -173079
832782579007558400 354096 318754 337455 -173098
832782579025770368 353881 318479 337443 -173113
832782579043982336 353611 318195 337454 -173065
832782579062194304 353210 317880 337445 -173073
832782579080406272 352906 317553 337463 -173141
832782579098618240 352706 317316 337416 -173145
832782579116830208 352631 317283 337417 -173113
832782579135042176 352763 317350 337463 -173132
832782579153254144 352789 317434 337398 -173127
832782579171466112 353010 317662 337420 -173117
832782579189678208 353134 317809 337462 -173091
832782579207890176 353205 317863 337445 -173126
832782579226102144 353224 317947 337415 -173113
832782579244314086 353293 317919 337476 -173107
832782579262526848 353402 318064 337449 -173067
832782579280739584 353542 318212 337463 -173072
832782579298952320 353748 318365 337415 -173053
832782579317164928 353897 318544 337466 -173064
832782579335377664 353975 318633 337445 -173067
832782579353590400 353880 318559 337379 -173123
832782579371803136 353567 318275 337364 -173131
832782579390015744 353305 317956 337430 -173070
832782579408228480 352939 317646 337423 -173064
832782579426441216 352768 317372 337435 -173100
832782579444653952 352637 317324 337479 -173082
832782579462866560 352691 317311 337388 -173082
832782579481079296 352741 317458 337436 -173128
832782579499292032 352983 317551 337433 -173115
832782579517504768 353106 317761 337407 -173112
832782579535717504 353248 317925 337491 -173078
832782579553930112 353212 317926 337420 -173129
832782579572142848 353248 317929 337450 -173116
832782579590355584 353326 317988 337416 -173112
832782579608568320 353471 318119 337393 -173102
832782579626780928 353696 318328 337384 -173094
832782579644993664 353883 318501 337401 -173120
832782579663206400 353971 318606 337422 -173125
832782579681419136 353971 318618 337465 -173073
832782579699631744 353693 318341 337386 -173137
832782579717844480 353395 318080 337416 -173130
832782579736057216 353024 317812 337408 -173134
832782579754269952 352790 317477 337405 -173102
832782579772482688 352632 317232 337343 -173110
832782579790695296 352599 317324 337402 -173132
832782579808908032 352760 317390 337423 -173163
832782579827120768 352915 317602 337456 -173119
832782579845333504 353115 317773 337406 -173103
832782579863546112 353206 317899 337429 -173079
832782579881758848 353250 317880 337412 -173108
832782579899971584 353340 317985 337458 -173094
832782579918184320 353246 317936 337410 -173161
832782579936396928 353492 318098 337442 -173075
832782579954609664 353631 318219 337385 -173072
832782579972822400 353830 318452 337421 -173128
832782579991035136 353991 318597 337401 -173112
832782580009247754 354024 318643 337443 -173071
832782580027459840 353931 318597 337390 -173130
832782580045671936 353556 318196 337439 -173100
832782580063884032 353187 317835 337401 -173148
832782580082096256 352881 317615 337466 -173074
832782580100308352 352627 317364 337449 -173123
832782580118520448 352636 317325 337442 -173079
832782580136732544 352699 317413 337415 -173072
832782580154944768 352856 317531 337404 -173078
832782580173156864 353084 317699 337454 -173039
832782580191368960 353227 317860 337453 -173046
832782580209581056 353309 317930 337443 -173024
832782580227793280 353272 317961 337455 -173061
832782580246005376 353279 317983 337412 -173041
832782580264217472 353408 318058 337410 -173099
832782580282429568 353610 318271 337455 -173053
832782580300641664 353750 318434 337448 -173085
832782580318853888 353958 318635 337475 -173048
832782580337065984 353996 318682 337466 -173127
832782580355278080 353949 318479 337436 -173051
832782580373490176 353705 318237 337485 -173062
832782580391702400 353301 317894 337472 -173097
832782580409914496 353024 317648 337545 -173078
832782580428126592 352788 317416 337558 -173097
832782580446338688 352634 317286 337456 -173072
832782580464550784 352628 317298 337462 -173093
832782580482763008 352847 317459 337482 -173102
832782580500975104 352985 317649 337497 -173156
832782580519187200 353144 317833 337462 -173092
832782580537399296 353239 317926 337466 -173085
832782580555611520 353354 318057 337445 -173120
832782580573823616 353344 317993 337428 -173131
832782580592035712 353421 318091 337498 -173099
832782580610247808 353509 318209 337440 -173116
832782580628460032 353790 318389 337456 -173034
832782580646672128 353930 318595 337484 -173076
832782580664884224 353991 318663 337412 -173041
832782580683096320 353907 318612 337471 -173114
832782580701308416 353751 318421 337398 -173105
832782580719520640 353407 318085 337455 -173045
832782580737732736 353071 317744 337455 -173068
832782580755944832 352866 317514 337475 -173104
832782580774157010 352720 317355 337473 -173062
832782580792370176 352666 317300 337412 -173149
832782580810583296 352773 317416 337452 -173069
832782580828796416 352976 317537 337466 -173109
832782580847009664 353173 317769 337492 -173069
832782580865222784 353244 317864 337439 -173099
832782580883435904 353305 317960 337431 -173062
832782580901649024 353338 317989 337452 -173100
832782580919862144 353347 318037 337473 -173075
832782580938075264 353462 318138 337472 -173075
832782580956288512 353632 318327 337491 -173062
832782580974501632 353862 318489 337460 -173059
832782580992714752 353984 318632 337494 -173037
832782581010927872 353992 318655 337463 -173013
832782581029140992 353828 318471 337482 -173068
832782581047354112 353531 318210 337517 -173077
832782581065567360 353190 317875 337482 -173123
832782581083780480 352859 317548 337442 -173137
832782581101993600 352716 317383 337443 -173131
832782581120206720 352636 317334 337411 -173129
832782581138419840 352786 317459 337443 -173087
832782581156632960 352951 317642 337453 -173060
832782581174846208 353133 317738 337452 -173057
832782581193059328 353292 317847 337468 -173112
832782581211272448 353262 317916 337452 -173085
832782581229485568 353307 317996 337523 -173070
832782581247698688 353340 318037 337493 -173057
832782581265911936 353441 318075 337443 -173016
832782581284125056 353622 318294 337527 -173059
832782581302338176 353861 318471 337484 -173004
832782581320551296 354022 318714 337486 -173021
832782581338764416 354070 318751 337492 -173043
832782581356977536 353947 318602 337487 -173042
832782581375190784 353674 318348 337525 -173023
832782581393403904 353326 318008 337465 -173035
832782581411617024 352976 317657 337422 -173052
832782581429830144 352685 317383 337400 -173077
832782581448043264 352682 317322 337467 -173062
832782581466256384 352692 317365 337455 -173104
832782581484469632 352864 317494 337473 -173127
832782581502682752 353163 317801 337470 -173064
832782581520895872 353207 317841 337382 -173100
832782581539108990 353298 317930 337464 -173022
832782581557320704 353291 317893 337416 -173035
832782581575532416 353303 317976 337456 -173055
832782581593744256 353378 318132 337455 -173053
832782581611955968 353567 318302 337498 -173025
832782581630167808 353733 318405 337480 -173124
832782581648379520 353963 318608 337502 -172986
832782581666591232 353998 318679 337453 -173113
832782581684803072 353895 318562 337395 -173087
832782581703014784 353690 318352 337448 -173089
832782581721226496 353287 318011 337428 -173088
832782581739438336 352997 317773 337469 -173063
832782581757650048 352768 317452 337449 -173088
832782581775861888 352639 317287 337402 -173093
832782581794073600 352676 317349 337403 -173087
832782581812285312 352805 317444 337434 -173059
832782581830497152 352968 317629 337438 -173063
832782581848708864 353153 317798 337441 -173112
832782581866920704 353263 317867 337473 -173095
832782581885132416 353246 317909 337424 -173089
832782581903344128 353290 317970 337414 -173065
832782581921555968 353415 318077 337480 -173068
832782581939767680 353508 318154 337419 -173068
832782581957979520 353719 318366 337401 -173108
832782581976191232 353914 318549 337433 -173096
832782581994402944 354057 318679 337391 -173086
832782582012614784 354138 318802 337430 -173124
832782582030826496 353838 318459 337419 -173121
832782582049038208 353518 318147 337374 -173108
832782582067250048 353165 317779 337402 -173081
832782582085461760 352832 317496 337357 -173094
832782582103673600 352669 317372 337432 -173090
832782582121885312 352667 317280 337425 -173075
832782582140097024 352691 317403 337437 -173123
832782582158308864 352923 317522 337422 -173119
832782582176520576 353019 317727 337420 -173104
832782582194732416 353187 317862 337431 -173090
832782582212944128 353227 317952 337483 -173082
832782582231155840 353271 318019 337473 -173107
832782582249367680 353365 318047 337477 -173105
832782582267579392 353500 318167 337462 -173080
832782582285791232 353668 318312 337466 -173080
832782582304002984 353867 318478 337487 -173059
832782582322213120 354063 318674 337458 -173061
832782582340423296 353989 318671 337417 -173074
832782582358633472 353916 318585 337446 -173038
832782582376843776 353607 318280 337457 -173070
832782582395053952 353210 317927 337456 -173123
832782582413264128 352977 317681 337483 -173072
832782582431474304 352794 317396 337476 -173059
832782582449684480 352713 317350 337462 -173094
832782582467894784 352721 317389 337468 -173099
832782582486104960 352897 317598 337465 -173129
832782582504315136 353030 317757 337458 -173132
832782582522525312 353314 317960 337451 -173095
832782582540735488 353273 317956 337442 -173119
832782582558945792 353369 317943 337412 -173142
832782582577155968 353366 317994 337457 -173058
832782582595366144 353390 318102 337438 -173105
832782582613576320 353569 318223 337468 -173023
832782582631786496 353655 318384 337400 -173105
832782582649996800 353924 318598 337472 -173074
832782582668206976 354020 318682 337518 -173044
832782582686417152 353910 318637 337467 -173085
832782582704627328 353680 318380 337463 -173077
832782582722837504 353348 317979 337476 -173074
832782582741047808 353019 317638 337472 -173151
832782582759257984 352826 317421 337457 -173076
832782582777468160 352667 317323 337473 -173062
832782582795678336 352719 317297 337499 -173021
832782582813888640 352805 317438 337483 -173061
832782582832098816 352932 317681 337466 -173077
832782582850308992 353156 317834 337475 -173098
832782582868519168 353255 317919 337460 -173117
832782582886729344 353273 317954 337475 -173119
832782582904939648 353406 317998 337447 -173086
832782582923149824 353445 318066 337469 -173096
832782582941360000 353546 318156 337497 -173062
832782582959570176 353736 318389 337544 -173045
832782582977780352 353954 318495 337498 -173017
832782582995990656 354100 318660 337504 -173062
832782583014200832 354001 318639 337472 -173091
832782583032411008 353933 318583 337486 -173056
832782583050621272 353505 318186 337437 -173090
832782583068832768 353196 317780 337464 -173088
832782583087044224 352866 317496 337471 -173086
832782583105255808 352644 317337 337372 -173092
832782583123467264 352707 317302 337450 -173091
832782583141678848 352803 317414 337447 -173030
832782583159890304 352958 317638 337466 -172990
832782583178101760 353144 317749 337484 -173094
832782583196313344 353255 317888 337524 -173096
832782583214524800 353286 317990 337508 -173047
832782583232736384 353305 317954 337464 -173053
832782583250947840 353404 318017 337493 -173096
832782583269159296 353484 318222 337531 -173041
832782583287370880 353665 318340 337514 -173065
832782583305582336 353881 318529 337468 -173113
832782583323793920 354036 318769 337488 -173062
832782583342005376 354025 318721 337455 -173095
832782583360216832 353923 318636 337500 -173069
832782583378428416 353606 318245 337456 -173009
832782583396639872 353222 317917 337482 -173004
832782583414851456 352930 317578 337472 -173071
832782583433062912 352710 317388 337412 -173091
832782583451274496 352676 317372 337450 -173089
832782583469485952 352756 317459 337475 -173095
832782583487697408 353046 317713 337485 -173087
832782583505908992 353131 317816 337468 -173057
832782583524120448 353245 317889 337458 -173024
832782583542332032 353310 317921 337480 -173111
832782583560543488 353319 317974 337457 -173106
832782583578754944 353339 318033 337455 -173085
832782583596966528 353441 318144 337486 -173091
832782583615177984 353557 318186 337466 -173092
832782583633389568 353795 318510 337465 -173055
832782583651601024 353972 318662 337476 -173085
832782583669812480 354053 318755 337442 -173125
832782583688024064 353985 318673 337524 -173060
832782583706235520 353703 318389 337510 -173025
832782583724447104 353373 318054 337460 -173093
832782583742658560 353032 317737 337507 -173093
832782583760870016 352794 317537 337515 -173087
832782583779081600 352702 317432 337522 -173072
832782583797293056 352776 317439 337490 -173102
832782583815504600 352858 317573 337510 -173111
832782583833716352 353062 317658 337541 -173079
832782583851928064 353169 317862 337465 -173017
832782583870139648 353279 317970 337443 -173033
832782583888351360 353307 317970 337505 -173043
832782583906562944 353339 318075 337527 -173021
832782583924774656 353387 318142 337510 -173046
832782583942986240 353575 318258 337494 -173010
832782583961197952 353737 318323 337507 -173081
832782583979409536 354009 318585 337516 -173072
832782583997621248 354170 318805 337494 -173103
832782584015832832 354100 318757 337445 -173093
832782584034044544 353764 318447 337510 -173070
832782584052256128 353438 318131 337456 -173114
832782584070467840 353119 317836 337491 -173105
832782584088679552 352904 317533 337542 -173031
832782584106891136 352722 317376 337514 -173071
832782584125102848 352743 317373 337473 -173056
832782584143314432 352831 317493 337467 -173061
832782584161526144 352960 317665 337466 -173139
832782584179737728 353161 317787 337422 -173110
832782584197949440 353256 317933 337401 -173082
832782584216161024 353326 317973 337449 -173074
832782584234372736 353372 318046 337508 -173059
832782584252584320 353378 318028 337422 -173109
832782584270796032 353467 318090 337471 -173092
832782584289007616 353729 318291 337404 -173046
832782584307219328 353850 318519 337456 -173040
832782584325431040 354006 318686 337440 -173057
832782584343642624 354108 318657 337484 -173050
832782584361854336 353859 318481 337463 -173079
832782584380065920 353580 318273 337494 -173106
832782584398277632 353173 317838 337492 -173087
832782584416489216 352864 317581 337530 -173092
832782584434700928 352672 317364 337467 -173069
832782584452912512 352659 317328 337474 -173040
832782584471124224 352710 317421 337420 -173095
832782584489335808 352923 317580 337469 -173113
832782584507547520 353253 317853 337470 -173048
832782584525759104 353217 317910 337491 -173119
832782584543970816 353277 317933 337431 -173162
832782584562182528 353242 317934 337441 -173109
832782584580394018 353330 317997 337413 -173089
832782584598606336 353469 318105 337420 -173129
832782584616818688 353588 318268 337416 -173193
832782584635031040 353774 318490 337420 -173085
832782584653243392 353896 318657 337421 -173126
832782584671455744 354035 318683 337452 -173064
832782584689668096 353953 318606 337434 -173057
832782584707880448 353642 318233 337413 -173062
832782584726092800 353353 317974 337497 -173073
832782584744305024 353043 317678 337494 -173058
832782584762517376 352763 317356 337440 -173131
832782584780729728 352726 317357 337474 -173093
832782584798942080 352743 317388 337519 -173070
832782584817154432 352915 317492 337511 -173065
832782584835366784 353016 317742 337466 -173103
832782584853579136 353166 317880 337466 -173078
832782584871791488 353270 317940 337492 -173043
832782584890003840 353338 317933 337473 -173086
832782584908216192 353305 317953 337413 -173106
832782584926428544 353376 318108 337403 -173141
832782584944640896 353525 318247 337420 -173060
832782584962853248 353732 318417 337423 -173040
832782584981065600 354001 318650 337475 -173047
832782584999277824 354141 318704 337428 -173091
832782585017490176 353941 318638 337456 -173068
832782585035702528 353731 318400 337538 -173039
832782585053914880 353354 318016 337459 -173132
832782585072127232 353040 317815 337509 -173099
832782585090339584 352873 317506 337489 -173089
832782585108551936 352736 317396 337504 -173031
832782585126764288 352721 317356 337492 -173094
832782585144976640 352850 317511 337501 -173048
832782585163188992 352966 317626 337445 -173076
832782585181401344 353121 317855 337501 -173056
832782585199613696 353245 317947 337502 -173055
832782585217826048 353342 318002 337516 -173071
832782585236038400 353390 317998 337510 -173039
832782585254250624 353449 318018 337515 -173036
832782585272462976 353501 318171 337460 -173085
832782585290675328 353695 318376 337473 -173046
832782585308887680 353905 318595 337532 -173067
832782585327100032 353991 318673 337465 -173102
832782585345312428 354013 318632 337424 -173106
832782585363524736 353882 318409 337480 -173092
832782585381737088 353571 318152 337509 -173077
832782585399949440 353211 317817 337515 -173110
832782585418161792 352904 317553 337485 -173103
832782585436374144 352725 317376 337453 -173122
832782585454586496 352702 317376 337530 -173090
832782585472798848 352809 317514 337473 -173075
832782585491011200 352956 317582 337435 -173085
832782585509223424 353104 317740 337447 -173054
832782585527435776 353250 317857 337436 -173078
832782585545648128 353301 317939 337436 -173029
832782585563860480 353336 317942 337460 -173046
832782585582072832 353320 317985 337439 -173053
832782585600285184 353432 318089 337481 -173060
832782585618497536 353603 318268 337479 -173060
832782585636709888 353857 318462 337460 -173069
832782585654922240 353986 318655 337447 -173058
832782585673134592 354078 318720 337487 -173006
832782585691346944 353894 318510 337474 -173036
832782585709559296 353693 318313 337525 -173072
832782585727771648 353242 317906 337463 -173092
832782585745984000 352992 317631 337508 -173068
832782585764196224 352794 317417 337474 -173021
832782585782408576 352702 317338 337517 -173104
832782585800620928 352700 317406 337442 -173170
832782585818833280 352874 317563 337455 -173105
832782585837045632 353084 317720 337470 -173093
832782585855257984 353191 317863 337473 -173100
832782585873470336 353280 317932 337474 -173082
832782585891682688 353342 318021 337509 -173068
832782585909895040 353373 318081 337471 -173116
832782585928107392 353507 318131 337504 -173048
832782585946319744 353495 318166 337421 -173121
832782585964532096 353728 318455 337459 -173134
832782585982744448 354058 318729 337440 -173124
832782586000956800 354107 318723 337462 -173133
832782586019169024 353974 318635 337442 -173078
832782586037381376 353683 318356 337430 -173117
832782586055593728 353413 318100 337476 -173058
832782586073806080 353033 317701 337374 -173094
832782586092018432 352824 317415 337439 -173089
832782586110230838 352640 317314 337424 -173132
832782586128443392 352752 317393 337502 -173031
832782586146656000 352830 317477 337472 -173088
832782586164868736 353044 317619 337440 -173089
832782586183081344 353176 317761 337491 -173063
832782586201294080 353232 317929 337442 -173065
832782586219506688 353345 317915 337442 -173027
832782586237719424 353305 317993 337453 -173006
832782586255932032 353340 318042 337387 -173068
832782586274144768 353503 318144 337407 -173092
832782586292357376 353671 318365 337442 -173074
832782586310570112 353942 318612 337482 -173045
832782586328782720 354033 318718 337543 -173103
832782586346995456 353970 318629 337476 -173086
832782586365208064 353883 318467 337506 -173086
832782586383420800 353502 318167 337526 -173072
832782586401633408 353166 317801 337476 -173071
832782586419846144 352790 317484 337417 -173110
832782586438058752 352702 317392 337488 -173031
832782586456271488 352726 317325 337490 -173031
832782586474484096 352794 317389 337469 -173064
832782586492696832 353084 317633 337460 -173065
832782586510909440 353185 317767 337447 -173085
832782586529122176 353247 317920 337525 -173072
832782586547334784 353271 317921 337488 -173085
832782586565547520 353350 317913 337475 -173097
832782586583760128 353382 318017 337483 -173099
832782586601972864 353489 318170 337457 -173036
832782586620185472 353664 318354 337474 -173104
832782586638398208 353848 318511 337453 -173056
832782586656610816 354007 318688 337442 -173134
832782586674823552 353987 318731 337440 -173123
832782586693036160 353899 318592 337436 -173047
832782586711248896 353600 318280 337432 -173092
832782586729461504 353331 317956 337480 -173071
832782586747674112 352963 317657 337505 -173082
832782586765886848 352856 317399 337475 -173026
832782586784099456 352703 317345 337467 -173105
832782586802312192 352805 317367 337481 -173092
832782586820524800 352954 317507 337479 -173123
832782586838737536 353095 317766 337497 -173124
832782586856950144 353223 317908 337518 -173129
832782586875162982 353254 317887 337505 -173112
832782586893375744 353332 317976 337483 -173120
832782586911588480 353350 318004 337494 -173114
832782586929801216 353473 318153 337548 -173115
832782586948013952 353574 318226 337446 -173110
832782586966226688 353784 318474 337477 -173103
832782586984439424 354065 318676 337561 -173031
832782587002652160 354206 318813 337439 -173048
832782587020864896 354031 318653 337472 -173053
832782587039077632 353701 318324 337429 -173114
832782587057290368 353358 318060 337515 -173076
832782587075503232 353053 317703 337510 -173095
832782587093715968 352789 317366 337443 -173133
832782587111928704 352705 317267 337502 -173052
832782587130141440 352740 317377 337500 -173056
832782587148354176 352819 317507 337483 -173058
832782587166566912 353024 317675 337440 -173072
832782587184779648 353185 317829 337442 -173070
832782587202992384 353230 317934 337452 -173070
832782587221205120 353314 318006 337516 -172997
832782587239417856 353315 318001 337446 -173051
832782587257630592 353411 318088 337493 -173064
832782587275843328 353558 318200 337501 -173065
832782587294056064 353678 318295 337422 -173126
832782587312268800 353952 318565 337508 -173098
832782587330481536 353998 318665 337493 -173074
832782587348694272 354050 318626 337537 -173064
832782587366907008 353763 318395 337473 -173060
832782587385119744 353452 318108 337469 -173112
832782587403332480 353123 317802 337514 -173054
832782587421545344 352895 317488 337492 -173100
832782587439758080 352679 317347 337500 -173116
832782587457970816 352696 317347 337448 -173140
832782587476183552 352840 317508 337467 -173091
832782587494396288 352954 317613 337472 -173128
832782587512609024 353119 317748 337447 -173086
832782587530821760 353267 317865 337462 -173065
832782587549034496 353266 317934 337506 -173110
832782587567247232 353264 317904 337456 -173125
832782587585459968 353342 318006 337525 -173093
832782587603672704 353498 318120 337509 -173058
832782587621885440 353652 318301 337483 -173067
832782587640098176 353812 318494 337472 -173129
832782587658311040 353986 318647 337539 -173126
832782587676523904 354020 318735 337476 -173068
832782587694736640 353861 318520 337492 -173120
832782587712949504 353569 318194 337510 -173087
832782587731162240 353238 317910 337460 -173069
832782587749375104 352957 317582 337442 -173091
832782587767587968 352747 317404 337393 -173092
832782587785800704 352702 317307 337420 -173070
832782587804013568 352819 317423 337510 -173079
832782587822226432 352952 317569 337445 -173106
832782587840439168 353113 317725 337458 -173123
832782587858652032 353180 317862 337451 -173094
832782587876864768 353266 317968 337483 -173105
832782587895077632 353361 318014 337547 -173071
832782587913290496 353427 318056 337519 -173020
832782587931503232 353458 318140 337504 -173043
832782587949716096 353642 318302 337474 -173070
832782587967928960 353815 318490 337421 -173113
832782587986141696 353992 318721 337437 -173072
832782588004354560 354085 318722 337484 -173087
832782588022567296 353970 318594 337509 -173098
832782588040780160 353666 318332 337498 -173075
832782588058993024 353321 317989 337423 -173064
832782588077205760 353028 317723 337505 -173031
832782588095418624 352844 317523 337579 -172996
832782588113631488 352719 317386 337541 -173055
832782588131844224 352730 317449 337535 -173096
832782588150057088 352913 317567 337448 -173078
832782588168269824 353050 317794 337552 -173061
832782588186482688 353155 317905 337487 -173102
832782588204695552 353281 317972 337487 -173080
832782588222908288 353388 318017 337514 -173117
832782588241121152 353424 318021 337506 -173097
832782588259333888 353488 318076 337500 -173063
832782588277546752 353581 318213 337480 -173051
832782588295759616 353799 318339 337482 -173073
832782588313972352 353952 318579 337474 -173063
832782588332185216 354106 318703 337513 -173019
832782588350398080 354051 318622 337496 -173029
832782588368610816 353798 318446 337493 -173048
832782588386823680 353490 318158 337511 -173044
832782588405036424 353170 317864 337514 -173028
832782588423248256 352887 317579 337536 -172977
832782588441460096 352700 317451 337531 -173097
832782588459671936 352679 317426 337562 -173102
832782588477883904 352858 317491 337532 -173065
832782588496095744 352976 317688 337506 -173091
832782588514307584 353198 317816 337530 -173036
832782588532519424 353299 317869 337454 -173041
832782588550731392 353305 317914 337472 -173044
832782588568943232 353379 318015 337514 -173037
832782588587155072 353384 318070 337437 -173058
832782588605366912 353523 318179 337481 -173093
832782588623578880 353759 318390 337486 -173028
832782588641790720 353973 318608 337506 -173047
832782588660002560 354056 318687 337523 -172995
832782588678214400 354023 318700 337511 -173080
832782588696426368 353888 318515 337515 -173124
832782588714638208 353553 318177 337420 -173127
832782588732850048 353235 317880 337483 -173094
832782588751061888 352897 317563 337501 -173104
832782588769273856 352757 317391 337489 -173053
832782588787485696 352687 317370 337549 -173096
832782588805697536 352814 317438 337479 -173094
832782588823909376 352968 317649 337473 -173074
832782588842121344 353133 317837 337490 -173078
832782588860333184 353280 317963 337492 -173068
832782588878545024 353357 318005 337464 -173019
832782588896756864 353344 318029 337463 -173105
832782588914968704 353418 318064 337491 -173112
832782588933180672 353523 318167 337496 -173119
832782588951392512 353710 318355 337510 -173068
832782588969604352 353810 318552 337528 -173055
832782588987816192 354120 318829 337521 -173069
832782589006028160 354112 318807 337530 -173076
832782589024240000 353961 318656 337518 -173113
832782589042451840 353627 318284 337484 -173100
832782589060663680 353325 317956 337451 -173098
832782589078875648 353036 317707 337506 -173069
832782589097087488 352843 317500 337536 -173056
832782589115299328 352667 317372 337497 -173100
832782589133511168 352737 317416 337441 -173078
832782589151723136 352940 317627 337492 -173045
832782589169934996 353067 317720 337477 -173072
832782589188147328 353185 317877 337544 -173044
832782589206359680 353315 317970 337507 -173068
832782589224572032 353370 318035 337547 -173043
832782589242784384 353439 318027 337484 -173073
832782589260996736 353411 318124 337503 -173095
832782589279209088 353578 318286 337485 -173036
832782589297421440 353815 318462 337470 -173050
832782589315633792 353975 318654 337474 -173046
832782589333846016 354019 318749 337519 -173028
832782589352058368 353921 318619 337467 -173107
832782589370270720 353692 318446 337457 -173125
832782589388483072 353445 318116 337471 -173064
832782589406695424 353017 317752 337467 -173130
832782589424907776 352822 317528 337436 -173073
832782589443120128 352679 317381 337472 -173012
832782589461332480 352705 317359 337479 -173064
832782589479544832 352840 317520 337450 -173086
832782589497757184 353084 317766 337472 -173137
832782589515969536 353202 317846 337458 -173034
832782589534181888 353303 317972 337515 -173046
832782589552394240 353327 317970 337458 -173063
832782589570606592 353347 318037 337524 -173065
832782589588818816 353424 318124 337535 -173040
832782589607031168 353524 318169 337531 -173088
832782589625243520 353762 318365 337443 -173093
832782589643455872 353968 318653 337509 -173012
832782589661668224 354092 318769 337494 -173071
832782589679880576 353992 318731 337504 -173095
832782589698092928 353849 318547 337572 -173048
832782589716305280 353542 318237 337524 -173052
832782589734517632 353237 317827 337488 -173075
832782589752729984 352907 317544 337496 -173071
832782589770942336 352748 317309 337479 -173104
832782589789154688 352746 317367 337490 -173002
832782589807367040 352772 317405 337443 -173055
832782589825579392 352947 317618 337473 -173103
832782589843791616 353139 317796 337490 -173054
832782589862003968 353274 317971 337537 -173022
832782589880216320 353315 317965 337482 -173074
832782589898428672 353314 318020 337514 -173057
832782589916641024 353368 317985 337468 -173063
832782589934853406 353524 318164 337460 -173092
832782589953064960 353674 318340 337452 -173063
832782589971276544 353843 318568 337542 -173054
832782589989488256 354031 318782 337510 -173068
832782590007699840 354060 318778 337505 -173077
832782590025911424 353918 318592 337491 -173104
832782590044123008 353627 318318 337491 -173119
832782590062334720 353298 317971 337476 -173064
832782590080546304 352962 317591 337466 -173108
832782590098757888 352753 317472 337528 -173047
832782590116969472 352708 317407 337476 -173033
832782590135181184 352792 317475 337448 -173068
832782590153392768 352943 317554 337460 -173109
832782590171604352 353122 317828 337455 -173065
832782590189815936 353271 317889 337576 -173090
832782590208027648 353393 317979 337514 -173071
832782590226239232 353372 317983 337499 -173085
832782590244450816 353442 318087 337509 -173095
832782590262662400 353512 318137 337519 -173107
832782590280874112 353642 318256 337454 -173062
832782590299085696 353800 318463 337504 -173050
832782590317297280 354019 318632 337566 -173038
832782590335508864 354072 318720 337504 -173010
832782590353720576 353953 318576 337494 -173062
832782590371932160 353716 318365 337538 -173109
832782590390143744 353322 318020 337446 -173112
832782590408355328 353087 317683 337476 -173124
832782590426567040 352850 317499 337540 -173091
832782590444778624 352750 317417 337518 -173087
832782590462990208 352826 317439 337498 -173060
832782590481201792 352958 317539 337471 -173033
832782590499413504 353103 317724 337503 -173065
832782590517625088 353259 317891 337540 -173077
832782590535836672 353332 318016 337525 -173051
832782590554048256 353403 318041 337570 -173042
832782590572259968 353463 318098 337517 -173041
832782590590471552 353475 318193 337523 -173016
832782590608683136 353600 318290 337527 -173071
832782590626894720 353735 318456 337513 -173071
832782590645106432 353925 318653 337423 -173109
832782590663318016 354078 318807 337520 -173077
832782590681529600 354013 318700 337470 -173093
832782590699741298 353871 318488 337462 -173080
832782590717953664 353582 318223 337498 -173041
832782590736166016 353214 317860 337481 -173080
832782590754378368 352958 317550 337530 -173021
832782590772590720 352786 317416 337483 -172993
832782590790803072 352729 317460 337476 -173053
832782590809015424 352866 317550 337460 -173046
832782590827227776 353009 317700 337516 -173069
832782590845440128 353170 317825 337470 -173057
832782590863652352 353275 317930 337488 -173080
832782590881864704 353349 317976 337534 -173137
832782590900077056 353385 318022 337487 -173103
832782590918289408 353399 318068 337474 -173136
832782590936501760 353491 318192 337474 -173093
832782590954714112 353714 318342 337521 -173039
832782590972926464 353916 318628 337486 -173001
832782590991138816 354000 318769 337442 -173069
832782591009351168 354073 318799 337511 -173054
832782591027563520 353928 318581 337486 -173054
832782591045775872 353769 318404 337528 -173011
832782591063988224 353399 317944 337508 -173069
832782591082200576 352990 317631 337501 -173094
832782591100412928 352813 317483 337514 -173034
832782591118625280 352685 317372 337492 -173072
832782591136837504 352791 317450 337488 -173107
832782591155049856 352945 317647 337540 -173068
832782591173262208 353167 317871 337569 -173014
832782591191474560 353263 317978 337593 -173060
832782591209686912 353266 318011 337484 -173054
832782591227899264 353398 318035 337548 -173022
832782591246111616 353444 318103 337568 -173071
832782591264323968 353581 318124 337467 -173108
832782591282536320 353654 318307 337567 -173061
832782591300748672 353848 318515 337521 -173016
832782591318961024 354065 318716 337565 -173069
832782591337173376 354170 318773 337579 -172977
832782591355385728 353999 318610 337511 -173043
832782591373598080 353751 318421 337574 -173009
832782591391810304 353423 317999 337559 -173019
832782591410022656 353066 317705 337490 -173048
832782591428235008 352849 317503 337509 -173057
832782591446447360 352763 317410 337525 -173065
832782591464659718 352864 317458 337536 -173079
832782591482871424 352981 317625 337522 -173042
832782591501083136 353137 317735 337498 -173005
832782591519294848 353244 317929 337558 -173047
832782591537506560 353355 318014 337547 -173062
832782591555718272 353440 318046 337549 -173034
832782591573930112 353416 318134 337578 -173009
832782591592141824 353493 318126 337505 -173039
832782591610353536 353603 318272 337519 -173065
832782591628565248 353812 318516 337561 -173052
832782591646776960 353987 318719 337517 -173091
832782591664988672 354181 318800 337504 -173042
832782591683200384 354023 318669 337463 -173076
832782591701412096 353823 318503 337485 -173063
832782591719623808 353537 318216 337522 -173052
832782591737835520 353136 317824 337501 -173006
832782591756047360 352882 317516 337533 -173063
832782591774259072 352713 317343 337527 -173045
832782591792470784 352719 317358 337508 -173081
832782591810682496 352844 317477 337483 -173087
832782591828894208 353023 317721 337511 -173036
832782591847105920 353193 317826 337503 -173072
832782591865317632 353293 317942 337511 -173076
832782591883529344 353297 317971 337484 -173102
832782591901741056 353367 318025 337503 -173107
832782591919952896 353456 318069 337500 -173073
832782591938164608 353550 318247 337482 -173060
832782591956376320 353778 318363 337504 -173025
832782591974588032 353946 318588 337496 -173103
832782591992799744 354145 318781 337475 -173039
832782592011011456 354100 318704 337451 -173085
832782592029223168 353944 318579 337505 -173106
832782592047434880 353590 318259 337535 -173095
832782592065646592 353262 317915 337448 -173089
832782592083858304 352973 317606 337459 -173074
832782592102070144 352794 317456 337482 -173096
832782592120281856 352734 317367 337494 -173090
832782592138493568 352814 317501 337488 -173103
832782592156705280 353024 317683 337500 -173078
832782592174916992 353122 317864 337547 -173022
832782592193128704 353263 317971 337507 -173089
832782592211340416 353390 318016 337545 -173028
832782592229552188 353422 318084 337510 -173067
832782592247764480 353432 318104 337570 -173026
832782592265976832 353522 318159 337485 -173114
832782592284189312 353699 318291 337501 -173087
832782592302401664 353918 318546 337480 -173065
832782592320614144 354123 318767 337502 -173045
832782592338826496 354081 318803 337479 -173073
832782592357038976 353939 318707 337485 -173096
832782592375251328 353686 318401 337496 -173059
832782592393463808 353320 318048 337418 -173077
832782592411676160 353046 317722 337474 -173031
832782592429888640 352774 317514 337506 -173072
832782592448100992 352773 317403 337455 -173038
832782592466313472 352823 317461 337510 -173072
832782592484525824 352903 317633 337527 -173074
832782592502738304 353122 317799 337523 -173073
832782592520950656 353258 317961 337548 -173104
832782592539163136 353365 318054 337581 -173040
832782592557375488 353373 318085 337525 -173076
832782592575587968 353445 318162 337509 -173050
832782592593800320 353558 318195 337566 -173026
832782592612012800 353662 318322 337522 -173044
832782592630225152 353832 318458 337526 -173081
832782592648437632 354078 318695 337548 -173043
832782592666649984 354112 318747 337532 -173031
832782592684862464 354004 318685 337511 -173087
832782592703074816 353802 318441 337494 -173075
832782592721287296 353464 318130 337490 -173069
832782592739499648 353122 317819 337528 -173048
832782592757712128 352908 317533 337477 -173048
832782592775924480 352726 317348 337452 -173115
832782592794136960 352741 317396 337431 -173124
832782592812349312 352924 317603 337474 -173061
832782592830561792 353137 317744 337501 -173002
832782592848774144 353237 317881 337530 -173040
832782592866986624 353341 317927 337490 -173131
832782592885198976 353426 318049 337513 -173099
832782592903411456 353437 318056 337494 -173095
832782592921623808 353408 318131 337507 -173134
832782592939836288 353608 318290 337530 -173034
832782592958048640 353776 318449 337502 -173088
832782592976261120 354012 318626 337510 -173107
832782592994473650 354043 318720 337428 -173109
832782593012686720 354099 318729 337466 -173079
832782593030899840 354002 318674 337521 -173043
832782593049112960 353613 318291 337471 -173074
832782593067326208 353234 317870 337494 -173035
832782593085539328 353006 317571 337543 -173039
832782593103752448 352792 317420 337537 -173043
832782593121965568 352791 317435 337538 -173052
832782593140178688 352847 317503 337557 -173058
832782593158391808 353032 317684 337527 -173020
832782593176605056 353218 317888 337560 -173075
832782593194818176 353311 318008 337513 -173020
832782593213031296 353379 317994 337551 -173070
832782593231244416 353371 318000 337540 -173070
832782593249457536 353430 318038 337502 -173074
832782593267670656 353574 318162 337561 -173037
832782593285883904 353649 318341 337509 -173128
832782593304097024 353895 318516 337553 -173086
832782593322310144 354113 318703 337549 -173056
832782593340523264 354140 318767 337528 -173108
832782593358736384 353970 318629 337503 -173061
832782593376949504 353675 318339 337471 -173042
832782593395162752 353290 317939 337476 -173071
832782593413375872 353002 317641 337448 -173047
832782593431588992 352807 317437 337511 -173086
832782593449802112 352746 317391 337538 -173014
832782593468015232 352825 317525 337532 -173020
832782593486228480 352965 317674 337518 -173056
832782593504441600 353135 317737 337527 -173090
832782593522654720 353279 317942 337534 -173013
832782593540867840 353496 318128 337549 -173033
832782593559080960 353461 318065 337499 -173082
832782593577294080 353445 318096 337460 -173057
832782593595507328 353500 318176 337448 -173107
832782593613720448 353701 318354 337507 -173103
832782593631933568 353837 318545 337466 -173128
832782593650146688 354022 318737 337479 -173064
832782593668359808 354123 318812 337509 -173038
832782593686572928 354027 318694 337518 -173056
832782593704786176 353801 318411 337504 -173079
832782593722999296 353462 318035 337535 -173073
832782593741212416 353111 317799 337548 -173064
832782593759425630 352804 317490 337481 -173092
832782593777638528 352693 317427 337522 -173056
832782593795851392 352810 317431 337450 -173081
832782593814064128 352943 317561 337515 -173062
832782593832276992 353157 317756 337576 -173030
832782593850489728 353245 317919 337545 -173080
832782593868702592 353400 318015 337515 -173043
832782593886915456 353416 318064 337534 -173107
832782593905128192 353454 318033 337501 -173064
832782593923341056 353527 318142 337485 -173025
832782593941553920 353642 318256 337519 -173058
832782593959766656 353741 318349 337445 -173138
832782593977979520 353989 318630 337524 -173116
832782593996192256 354091 318789 337526 -173103
832782594014405120 354049 318671 337524 -173102
832782594032617984 353884 318535 337521 -173096
832782594050830720 353575 318194 337505 -173091
832782594069043584 353241 317845 337517 -173042
832782594087256448 352959 317599 337505 -173047
832782594105469184 352780 317451 337528 -173059
832782594123682048 352758 317449 337556 -173043
832782594141894784 352873 317561 337500 -173043
832782594160107648 353019 317703 337517 -173053
832782594178320512 353166 317807 337491 -173085
832782594196533248 353328 317987 337537 -173057
832782594214746112 353379 317977 337515 -173043
832782594232958976 353401 318027 337538 -173092
832782594251171712 353390 318041 337480 -173107
832782594269384576 353547 318206 337552 -173104
832782594287597312 353722 318393 337494 -173099
832782594305810176 353965 318594 337551 -173080
832782594324023040 354143 318761 337530 -173059
832782594342235776 354106 318776 337492 -173079
